0,1,2,3,4,5,6,7,8,9,10,11,12,13,14,15,16,17,18,19,20,21,22,23,24,25,26,27,28,29,30,31,32,33,34,35,36,37,38,39,40,41,42,43,44,45,46,47,48,49,50,51,52,53,54,55,56,57,58,59,60,61,62,63,64,65,66,67,68,69,70,71,72,73,74,75,76,77,78,79,80,81,82,83,84,85,86,87,88,89,90,91,92,93,94,95,96,97,98,99,100,101,102,103,104,105,106,107,108,109,110,111,112,113,114,115,116,117,118,119,120,121,122,123,124,125,126,127,128,129,130,131,132,133,134,135,136,137,138,139,140,141,142,143,144,145,146,147,148,149,150,151,152,153,154,155,156,157,158,159,160,161,162,163,164,165,166,167,168,169,170,171,172,173,174,175,176,177,178,179,180,181,182,183,184,185,186,187,188,189,190,191,192,193,194,195,196,197,198,199,Label
0.4992169267083716,0.6284783905925146,0.7215664224125635,0.7679594925262394,0.8775187632019344,0.9999999999999998,0.9627417863415755,0.832756609577737,0.7574372332484058,0.7647665577682112,0.5035925426682707,0.3869387162678083,0.27684140463734785,0.1329744154663423,0.09236350627088241,0.05195332539935138,0.03313843545463929,0.16552724235585287,0.13001490070281652,0.2750124968873711,0.36403988062745163,0.5222509826115485,0.6180651793517401,0.7731452074941308,0.8711007799170924,0.9723880163765245,0.9038348282244258,0.9768130051569898,0.8132431638544859,0.7467819037988414,0.7185457233679922,0.6400003648204118,0.4585759658403506,0.257595235792084,0.19168180807265817,0.13115425971776745,0.08500713818462663,0.034115273608486374,0.1333018861878486,0.18129233851047133,0.26814804412916154,0.4203928761340667,0.5772397680768755,0.7307334645638299,0.7834598463861377,0.8708751288386161,0.9545677184488619,0.9303773336951138,0.9121233662952337,0.831303429477682,0.7389687549914921,0.5650149454933192,0.48770589733644154,0.4163646136952131,0.24770837175102528,0.1135820349383812,0.15386766075815878,0.09934355113684445,0.11848894011334205,0.17208199880613656,0.17909165063448268,0.36752913533991005,0.5257825261838046,0.5749917260023704,0.6333084530472672,0.8329513209617714,0.8905166428949185,0.8588517392071913,0.9490850855044077,0.9047878092140726,0.7429020497312486,0.7834649310584237,0.6120601196966812,0.3685699789829997,0.35986913108191376,0.24912772260515348,0.19235780028325528,0.05431482113081104,0.10477904058749177,0.08555560601223461,0.13529506226812643,0.21641123747458862,0.28841618169727945,0.5219974273962961,0.6153561988351446,0.6262731178496205,0.8414533538520953,0.9515658468775454,0.8722899917169161,0.8856091669167602,0.8850059641811083,0.6721729877970679,0.649870652085003,0.5624345190684467,0.39358197940108836,0.2394537921690586,0.13762065933157297,0.04609956278849309,0.04718629068171942,0.11747373319856669,0.21003966534036772,0.18180711265454802,0.31419743443872794,0.36129225538861054,0.44124076689230124,0.7375379883389981,0.7442575234378868,0.888203026297556,0.9188432098842595,0.9719943307120558,0.9482380649993614,0.8599419622145822,0.773723930031631,0.6947742753045673,0.49738444216744454,0.4529653456139735,0.23674662610071406,0.17281226806018357,0.12885282178531993,0.0,0.13699668041172441,0.14369115236770647,0.34518388718913556,0.39941847380584944,0.4333286638617733,0.6405373658406109,0.7241014230941367,0.8043416497329812,0.8028203831654752,0.8586706633846994,0.9275142983308091,0.8743702688275652,0.8376415942935536,0.7893241511721307,0.6487075113359398,0.45246288601470863,0.394713511710198,0.2010812625127446,0.10030091758860521,0.10673020238143771,0.033220914972833415,0.05780812253790685,0.18299354774706045,0.2558968002932759,0.32363273995556197,0.39620730787024,0.5640151335115368,0.7999499201588302,0.858824301630775,0.9503953891633988,0.9365022675686416,0.9079088880611972,0.92092805620869,0.8612083224033465,0.6814723552889347,0.5490177881741222,0.38445623350974206,0.292824542416382,0.2439224121450806,0.1057684175954714,0.12128694668444873,0.15359462477103952,0.09681254850786114,0.15855246113316335,0.2772704837782288,0.3456212810424292,0.4708625097545455,0.6005265271391284,0.6944909286557669,0.8769468803453244,0.8803392733018807,0.976406038459738,0.9390748171552601,0.8650425975797467,0.8171942322805041,0.6322287442725069,0.5139143279881959,0.4484611796258247,0.20080746006614397,0.19206866332804606,0.14092683434184272,0.13087607803315793,0.13722680642862395,0.10274617583108336,0.21341097301192163,0.24649373237686883,0.38270360649775176,0.5901714839342393,0.6561043358370633,0.7767522484668283,0.8127824134870619,0.9302135309679456,0.9616387193807152,0.9382898079329363,0.7958336260250445,0.8000788478578378,0.5995995993612264,0.5138853655295227,0.3163293778323698,0.2594948424533449,0
0.47040522601052287,0.5956293496896365,0.6982651529273785,0.7879517023363634,0.8594627495436784,0.8501605473198928,0.8627306261843743,0.9293854446459444,0.7950707606270537,0.6949671504571957,0.5818051462373638,0.481513383654474,0.20716367135445624,0.1275341090206754,0.07062650908279211,0.04425632647552902,0.049024420818306824,0.07873898954915731,0.17812962426103413,0.2699824257522415,0.35697697409146156,0.42313759289673103,0.5984891324710541,0.7280940258573173,0.8272996602620477,0.8438643073921703,0.8879948826795511,0.8390065915215454,0.8232922547637385,0.6931107320829222,0.5895417246279273,0.4439409664594124,0.3655813167396029,0.2178821117751999,0.19676996375152217,0.10850906741423344,0.05701545328898833,0.03334166230532709,0.12861544591837143,0.22073526738554766,0.30292949689193843,0.4875789194379925,0.567238066439049,0.7090444465803323,0.7813673629079844,0.8833537807177726,0.8658683830426361,0.8875465436571575,0.8906558363541135,0.8233973304224136,0.7338873424997437,0.6417382342281595,0.4067956308023103,0.29992203621086155,0.23803867718695526,0.10757363278494769,0.2236146245618565,0.08010055774781094,0.07177890460082831,0.10729448602697411,0.19514732309603944,0.32758870709466126,0.4561068364417263,0.5598772085180466,0.6869338887234365,0.8554264879288966,0.9281821516743523,0.9159462690135879,0.8457335973607437,0.8851256631276709,0.853302487354425,0.7427846918972443,0.59479742470771,0.49582754152667363,0.3137306467920712,0.22998367803207487,0.09160309841422892,0.0833288029689862,0.11533230840160308,0.06021657961415361,0.11140240562549342,0.2454818536332962,0.34701130866301855,0.5111347174753756,0.5910980691562172,0.7988094467327911,0.7641172361045767,0.9350810263110425,0.875726854853777,0.8197335226681087,0.8565899689468528,0.752941613860683,0.6083695116088847,0.46019123169897985,0.4031273923348113,0.324041390837552,0.20474340374393568,0.10723212804957782,0.08461201985731898,0.060653879138529154,0.03692961756835833,0.10834983890690925,0.2598373631199661,0.3808940791363934,0.5518964894598595,0.6729474153160423,0.7772049055950963,0.8258870804565484,0.8331865679098632,0.926406353260905,0.9094651056947749,0.7270288195648772,0.7032680992005711,0.5962572100084976,0.5046518391737701,0.3379340829630486,0.2531213601868648,0.14923542121617345,0.08447206534674612,0.029509349184336342,0.04008480787682833,0.06646860488627299,0.20751986860710858,0.321155688354167,0.38656731498198715,0.6123767173822751,0.6567922910083528,0.8407843158053154,0.8272904625929838,0.8135486737245157,0.9241592196524018,0.8863666781691203,0.8103064885757858,0.6849690723138387,0.5934529748974781,0.44566802112586074,0.3285155729108055,0.26407776575329883,0.14622773926426774,0.10586232320797034,0.04829562739216098,0.060560788128079635,0.08015124159828646,0.19983244203217038,0.1850149621409508,0.42623270477723585,0.5758235318686097,0.7225352962044562,0.7868056033720727,0.8840718321298107,0.8124882992093011,0.900377295779621,0.7907641794178701,0.7357727260584783,0.6765469092780174,0.6178490537466226,0.4511052450966272,0.31223510742294386,0.20243116191014576,0.09020540664078736,0.04775194435178309,0.07695144374766794,0.026354719880476996,0.17328165363599296,0.2248059378514189,0.3917762798012501,0.5244059454029198,0.5392026049260807,0.700958791484115,0.7825873795809921,0.8046233172092145,0.8643386690238384,1.0,0.8724005692108898,0.8453414222482916,0.690848706613813,0.5001621780540983,0.3872412490758082,0.3075600527582926,0.1984704967574974,0.08025755084296565,0.0,0.20168415441694548,0.09174994317899465,0.15494144493851641,0.27330247218052406,0.3774023178255709,0.5209141080357098,0.6954802246663718,0.7461617839300232,0.7883456169034532,0.8850473120176404,0.8891182273947247,0.9477001071789958,0.878468406687801,0.7433381485149886,0.5712552499507197,0.44746321285493285,0.37275515087170197,0.2690520518483994,0
0.4494336333682405,0.6465984192386631,0.7399571536798946,0.7708370557458505,0.8130763219343564,0.9059994913613193,0.8491052427567142,0.7858848746055205,0.8319002401548385,0.6673245821572336,0.5329122477104885,0.40468476243225626,0.23911956322474032,0.20138159446792436,0.1007359329663155,0.03173710117141093,0.03578373788579425,0.04560750955389192,0.1543588262739063,0.26391860209655377,0.37787230642363107,0.5304593378727136,0.6529278304952186,0.7800544350976634,0.8997584427695005,0.9400029246072621,0.9731813699017716,0.872179458574081,0.8269780554402257,0.7854844293443708,0.6702027145131415,0.48193023078160935,0.40741728910109526,0.21909350978692765,0.182209570432307,0.09136211180868586,0.0,0.04896064805387507,0.20951478100372312,0.20408612496426154,0.40392574665633435,0.3661584725654252,0.5936519721187791,0.5759354243753327,0.7948274923378864,0.9033797161248351,0.9587394936442586,0.8947416080747893,0.9429230276552656,0.8055630925845501,0.7226243100073094,0.5904362437408535,0.42890681286989707,0.4177084915889987,0.2352161259978861,0.1883568062650781,0.1264910929415209,0.016307316985610776,0.12904724361925324,0.15346066153558635,0.17465060638200308,0.3533108627675604,0.4173621661849082,0.6634579299834437,0.7512178637154158,0.8148720982071762,0.9460942851766836,0.8586998248163132,0.8925570664423503,0.8726104190297068,0.9042301681284879,0.6545477047396542,0.5026292359196737,0.38251635613321866,0.3580422885007363,0.18151700312728497,0.1156541505368815,0.10493191155215892,0.0522868928698928,0.0953164550759828,0.1741677379830241,0.22772248465707973,0.3575965417550804,0.5055983385374886,0.6631148274820085,0.7089568246631731,0.707405069187132,0.9333343612000784,0.9713829427364655,0.9271736411432107,0.8791847722297466,0.7579799592497038,0.6934257225815401,0.5817454270908782,0.41537599244239026,0.3975474616582185,0.11517510056445701,0.11355577903308761,0.013535352666138922,0.10071960178897804,0.03015287181919657,0.11386091423860062,0.24673773904373283,0.4083486135634766,0.5020561922723563,0.6307977661643553,0.7620834174884225,0.8480124200818944,0.9790491838871427,0.9614521714665507,0.8950179550294542,0.9407269736716961,0.7784151172906412,0.5985891419318614,0.522753621665337,0.4040963847912353,0.23026517473274516,0.11526164147011742,0.09628445615192388,0.04471216494200836,0.1324816743392535,0.14660288238492009,0.16726061297258982,0.3220937296884923,0.4845098556748795,0.5000315755840298,0.6419226491766715,0.7943502052694378,0.877378061397163,0.9198826237819113,0.9160668026632812,0.8833272251843739,0.845637298058593,0.7792903771936892,0.5883569286931144,0.5849645975985451,0.4347764096480222,0.29114870040327967,0.16806438245575878,0.1685430480007371,0.04589783363150274,0.03960964282435886,0.10852269184439284,0.17630771328641176,0.33903348130050515,0.47510907028124866,0.6020955020147343,0.7151492238865713,0.823790971574925,0.96667854977652,0.954830096397117,0.9655418621009799,0.8919587843033674,0.7361024148043758,0.6220945166302819,0.6680871542807323,0.4223544024233531,0.2915569911170565,0.21818098576547518,0.1466269971429895,0.10117885994530673,0.1366505260566917,0.15191922119521767,0.1154014861119837,0.28881392075588613,0.3480896005660479,0.4890327904272181,0.5774561516422905,0.669636512651688,0.83789080574113,0.8619335924795258,0.9713872104519998,0.9061706273658358,0.8809439420954712,0.8423144520942474,0.6067494407596487,0.5128670879042792,0.420806132657011,0.3024350524829711,0.23161368783266967,0.14429733282479057,0.06903350530195695,0.07555499691915418,0.11364550520761324,0.10793295131166075,0.2675529947159345,0.4075908066544053,0.5480696467682158,0.6160020820806423,0.7145907005013041,0.8483488947277367,1.0,0.8957443095986921,0.9604353512984516,0.9183636727471098,0.7589364419491732,0.6112104499425131,0.5339426799445806,0.38923084924829376,0.22277922915801524,0
0.5270410885029313,0.6140358577862037,0.7664535970401026,0.8528405595002557,0.9205992464094618,0.8737687288912648,0.9296881544074089,0.818739875481566,0.7543682203818396,0.6498891911722056,0.49781341699509213,0.34492106238507514,0.3496521950736397,0.17281781120026962,0.11856469923875729,0.060907679127095715,0.07790052648295193,0.1021731854898868,0.24296939302909162,0.26226417833269666,0.47042869895206313,0.5695615132375556,0.6235711704207404,0.7620089128047456,0.8528559945362622,0.9178237817940085,0.93809020677509,0.8865325746405894,0.784016019549671,0.7629312407348201,0.6188302006483097,0.3940674733641419,0.40150168229408845,0.24325309193405326,0.16200260092913554,0.11679735888941012,0.023297309645795405,0.09925406248412283,0.12393759325912568,0.1766965252004533,0.31539664479668916,0.36196889145496014,0.5568594355143348,0.6902917521586306,0.7846201721467778,0.8799306397238633,0.9385290105377438,0.8946986361549948,0.9127161060791906,0.8004754615912981,0.6829513580344143,0.5830234709272055,0.487771617556953,0.4003810935401363,0.2478720073111585,0.1342617208795272,0.16455610830431827,0.026389765767900975,0.07390940897838666,0.18931761310383977,0.3076374401296119,0.3613087900276012,0.4716759405482797,0.5722159358650432,0.7206324745674038,0.7990542797281515,0.8310869968706551,0.8836738491232019,0.8585892586354922,0.8556235286938982,0.7897850829644588,0.7514484197626168,0.5446329731288201,0.4387702710738046,0.3788126353822023,0.29741714175898215,0.16398593626553543,0.08672730371803344,0.06616904200008633,0.03574291096390264,0.13315999085245,0.26446386542271677,0.36341455059446376,0.5177183176040436,0.6058807596416574,0.694712371583214,0.8275677238026891,0.9758691601109287,0.8862475152699322,0.8932252877665716,0.8744998180388042,0.7374756531787513,0.7089958365945945,0.47413887535565524,0.39903170943269106,0.287099512204256,0.20759620228721765,0.049214653958534305,0.14581352900547773,0.10524017234107425,0.16854801292718347,0.25657873154634353,0.25614888899172417,0.2989056105498168,0.5698506382820815,0.6312352419740428,0.7027964922416852,0.8551769788835435,0.9839221181865674,0.8953257230305758,0.9176871145332428,0.7826679427923415,0.6680740872942739,0.6657136651711604,0.5299880473366161,0.36661839355958176,0.3427023585022584,0.10877586112032422,0.06642531136988045,0.06448899323785268,0.07906375754861095,0.19656089441434138,0.21445027458580262,0.3056488424192606,0.37909261799123006,0.598060382730339,0.6247928807045899,0.7202370949982912,0.8314702407395373,0.8976886570421392,0.8686662150071696,0.8968865724425665,0.7924109248076074,0.7543589199343155,0.6196134666637649,0.5498987154394045,0.33813560898948997,0.28220623323256827,0.08889801483493842,0.223541070008557,0.11721719827000321,0.08902439748089697,0.1423745382561314,0.22558329431083557,0.4167057768864023,0.49811046839401957,0.5660031055660413,0.6478125828643808,0.8425263661240732,0.8960088341060528,0.9250523831403823,0.8905269744129292,0.8428585310959291,0.8518666314034657,0.7573121205611961,0.5950649588471842,0.48566069508136833,0.3371195461892468,0.16802522542805237,0.10471346286118216,0.14377026823132544,0.1373521886881648,0.15381049873699926,0.1850712317846513,0.304797999792009,0.3684209241357006,0.5176360940449526,0.6054944439981629,0.6812343996960816,0.84889050637037,0.9257379743634142,0.9999999999999999,0.8983251028227028,0.797284812156584,0.7473857250582618,0.6515900189621694,0.5445401833743367,0.434836897315516,0.31457437729122484,0.23310412544097198,0.13760270117633278,0.0,0.09761606116280552,0.12632442833498725,0.21326835435726343,0.2715973710735955,0.4096657193300327,0.5458016763663022,0.6363839186790174,0.7765191685749055,0.8345491466093802,0.8899104950409189,0.7806565394097964,0.832310700114456,0.7764058065780435,0.7456295624758924,0.6802918061402868,0.502908558458344,0.4201670822283896,0.2995876833598573,0
0.5266826462549473,0.676082856965006,0.664947038543775,0.8484077642473915,0.8762559841085741,0.9209826478994066,0.9271474343094164,0.8415317149163777,0.7503638485085653,0.6719769006853693,0.49955901851034246,0.3707399765099879,0.32465145688075964,0.1433057525592384,0.14549956196595237,0.09600731822368164,0.0,0.08094109114290793,0.23236515922398904,0.2395385897820313,0.38147638041113235,0.5496909023805909,0.6890901098149238,0.7561250580290089,0.8281146164807451,0.9688591998165519,0.9994285609212206,0.9450709815372496,0.8480974862358404,0.7195615655525441,0.6049419956767801,0.5361193895551357,0.40352625716803403,0.3276098108885799,0.19846044751259795,0.039100923386524544,0.11693143328484523,0.03660032231625021,0.10823903929112644,0.2146712073873352,0.3953352384013663,0.5660803516201618,0.5880264775590268,0.6773573130426265,0.8140784640673766,0.9084953342337233,0.9022154137669964,1.0,0.9016695511517141,0.8458304028396022,0.7559876829339383,0.6275869092525276,0.5172896162285132,0.3283595575436029,0.21720876794435717,0.10371139187178419,0.1107710272129468,0.10342242369477095,0.10672671366466019,0.2131315554953641,0.22807991425826224,0.36819588442005335,0.4185873301573637,0.5773158877521863,0.7434481480937211,0.850192885023205,0.8727193036000427,0.9183495034220763,0.8540722446557201,0.8629230542472224,0.8408446647922784,0.7241879706012627,0.5994400570767204,0.4512820331948187,0.3249842747928569,0.18771217154021647,0.16271437087493817,0.1009157323266694,0.09176740225005708,0.07489537089966553,0.06839034138047922,0.3011166638522944,0.34962962455971425,0.46071084777165133,0.6547465071599914,0.7242311116499677,0.8800591971905356,0.9241931403836264,0.9536947418508753,0.8538797781014125,0.91418113792387,0.7904242311031204,0.6547279611768241,0.5521757345526757,0.34122096402955737,0.31307659589632253,0.1484117541136421,0.059176407461832725,0.01113924108492903,0.12136203092495318,0.08300624842900733,0.24688579989940684,0.25858047142279716,0.32833294373428895,0.4821972781110249,0.708433720715536,0.7602142497135769,0.830219179171634,0.9148863893425684,0.9465346797132339,0.9509943979978054,0.9063813370891516,0.7387374013384816,0.5837520980947246,0.4961008795632281,0.39676581325963983,0.22647713956349164,0.12972623588088011,0.11806518627308643,0.06987443912921548,0.08067542905920966,0.09222597630405577,0.19412274715097988,0.2704926517167269,0.47117451771227475,0.6063484464927564,0.6062548494678526,0.7514833175886775,0.8065576931940868,0.8881335326720772,0.9196769100431397,0.8298520087139392,0.7851341941019121,0.6845906158615058,0.6184235243306895,0.48438494316357583,0.32389224846257036,0.2486394985317679,0.12737560274991228,0.0803649934919628,0.1416681223263585,0.14446672270672928,0.08597275917956426,0.2637950209826869,0.37429520381952186,0.4161689609096491,0.6288740967446438,0.7794653552622397,0.7658936118647512,0.8460595500413557,0.9649216792388777,0.9305780884051142,0.9017669013028506,0.8173378037363015,0.7162991430020346,0.5213193797068121,0.49393279132898293,0.37468899944317374,0.2061369304570278,0.13097653657263314,0.01745303857228664,0.09271811551843107,0.12184514706735866,0.1577991416870581,0.3022796483836163,0.35581895878939224,0.5217396445326851,0.5814997561326503,0.7399849219019333,0.8272861559902376,0.907445791386009,0.908668805489012,0.9066610486569284,0.8976818242539435,0.7605800753726568,0.6018262542159392,0.6208498499388461,0.47623038764069187,0.24035265142443468,0.22191230605073625,0.0955057896285813,0.08749447098239743,0.0863679655841797,0.09988860157114088,0.14779959667447673,0.25196446183639465,0.36215985347306023,0.49436993995714507,0.6527233897205871,0.7362769294233589,0.882823280381822,0.9716330354114181,0.9002799543882628,0.9134550789721739,0.8658140631240347,0.7743004035721645,0.6436958075742226,0.5455328543121563,0.40625624408116756,0.21476618592404667,0
0.47855506189088043,0.6289504415075563,0.7684683236347803,0.8062880920844029,0.9221267612187178,0.9152386467637248,0.9561589040773508,0.8114813740247271,0.8680551137363484,0.6455916746359512,0.5562006685977299,0.404255147659189,0.23527843528278558,0.2137035197566518,0.09057052205802324,0.08352155452067817,0.023794540501005768,0.08361798126574799,0.15398974674635313,0.29118385587704476,0.4013569551021108,0.5099467515361324,0.6281015303034323,0.7695784939021407,0.8518797255528459,0.9036550527587444,0.9999999999999999,0.9170017420773529,0.9168966167032342,0.7401929881396264,0.6266923866743717,0.4795353937792219,0.3853047148996342,0.23957981263418615,0.13578530995159555,0.0064360250183873036,0.11967596231719152,0.04746928519914534,0.17311179588133357,0.18532950926394126,0.32393244157088413,0.42329393912037533,0.5677507754633059,0.6303857532405812,0.8314103250640927,0.8445759914061278,0.9458739265861353,0.8505483388136317,0.849321233813845,0.8300689780366313,0.709365933438464,0.6173490533372742,0.4776494357226075,0.41988769737336296,0.25007022568083215,0.11728234628528345,0.05982920442643236,0.10656536933793326,0.006125439003416111,0.15069399006356715,0.16595929746215798,0.3737136428198133,0.4338552495564861,0.6045375919185817,0.7041128932805195,0.7436671977656784,0.9027578259119948,0.8805388393637394,0.9436093520078064,0.8249379229848648,0.8025723618389835,0.6899866437121512,0.5400255510459692,0.4956158915800321,0.3124059258264023,0.18337488466325919,0.13072815481429906,0.004987161837209153,0.1608683837952981,0.03547225226789158,0.16941886765236924,0.24266042391373038,0.40747472939129664,0.4926572769238156,0.5858565831265361,0.6500170250714871,0.7477248298686892,0.8775659608155822,0.9736070250747046,0.8304146082738434,0.9317136174308062,0.8152558390728166,0.600999776944457,0.48706198884630947,0.3616822369432082,0.29457524794752477,0.17542687938891577,0.09791558314456467,0.039182457400850246,0.0661097740686058,0.13082298027194672,0.16114402979030712,0.23897242696570806,0.43080284905739086,0.508020833606989,0.6677742074105165,0.7517280864234177,0.8900640171077927,0.9511772071635516,0.9668198637937435,0.8695014173884281,0.8099101532014963,0.7807836112445958,0.6259967751029516,0.4998132795434291,0.3424085840704003,0.3142458808429567,0.20070701247033856,0.08309149844877423,0.02882311145978822,0.03428411126443892,0.1153730347034253,0.20611518429568215,0.2590814723338366,0.3665261149389119,0.5533327387410489,0.7110165817555066,0.7837075233212485,0.8496311810002098,0.857412040941866,0.8861229385178269,0.9195907214727883,0.760140827244391,0.7926930858462149,0.6013497345895932,0.4004517880079355,0.36288166189402704,0.24619195328683757,0.1170698698900261,0.11717234622882294,0.02807407820347857,0.09909079819270628,0.12513347954307874,0.20177104170653087,0.38377335425933445,0.4947804084484511,0.5342347685169633,0.7188778718376133,0.8848217099819786,0.9341101252276316,0.8724269773656601,0.9777830917280201,0.9080792124694091,0.7470323726088857,0.6972424442665078,0.5865117418558319,0.3898975787734824,0.3413478370972147,0.3060795576536757,0.17662155945096097,0.07460030823612784,0.04325630044620904,0.09632449733651927,0.10370714006013232,0.2194801945389806,0.2722565690091223,0.5037011951892303,0.5988005577414801,0.7565678398272744,0.8294820156771647,0.8443106867710046,0.9232647422722551,0.8716694116145597,0.9233679879562386,0.7321839884089378,0.6388104372677974,0.490142353404858,0.3566991714765459,0.2829897318819299,0.12424891403173771,0.09385901844552852,0.07940339697300491,0.04021110096295705,0.0,0.22406510033020338,0.2789611315467264,0.4000973884197756,0.5075597559882313,0.6789164614128399,0.7963917007280075,0.8880384155569665,0.9096710483583628,0.8560411399853398,0.910686060186976,0.845608179830368,0.7195740158084207,0.5942695043056321,0.5246536716917001,0.369049265011596,0.23680601639090673,0
0.511721251267786,0.7151493867091188,0.7858564533911404,0.7946414324335869,0.6715027158634141,0.5157455937396315,0.4334414266580868,0.40488472147969995,0.4124117501329448,0.5038422513699111,0.34524189761064783,0.578938502519465,0.42525641828990046,0.24704717749155802,0.2082631566026742,0.25748882448768684,0.32049913132864394,0.5427814178483102,0.8111346532495667,0.8516487028914317,0.9725174658613115,0.8065977783075045,0.6094830901697709,0.37798126988638364,0.4028769189659123,0.42398052203068154,0.5965708865957889,0.309737250087072,0.42869489977057273,0.3040516235441417,0.0757063117020988,0.2633926934252294,0.17871405804988133,0.4921480821364638,0.9246948857402737,0.6568036800435466,0.812835268999448,0.7021664034946068,0.545306781663485,0.55380497123417,0.5430432659873741,0.5467686256406655,0.47602257345568477,0.8008459999993489,0.3716703323651999,0.32273247707529096,0.2943227165044058,0.20007468848411403,0.25828344086798294,0.494941440679625,0.5398012306723541,0.7453432727243363,0.7736443912886235,0.8565764790046314,0.6568079711799241,0.5181431634728201,0.5065425459333742,0.5426710884824406,0.29917743866269453,0.5967343059270537,0.5454759611688614,0.5818012821966836,0.33768440569584063,0.35336648395931064,0.12358222153255999,0.05070536196389136,0.5232945824273724,0.5537058474780706,0.6407048401894095,0.8333861995292156,0.7415009574734062,0.7046686031682882,0.5844303236265541,0.4517577890997251,0.38301230110962065,0.5561309633274989,0.5906364724090241,0.6021065450815625,0.36459716217004823,0.26790473181726726,0.24861778698258186,0.3139573063968535,0.4037344451447415,0.5167203249215461,0.6586186595872594,0.8562249392440278,0.7162126925759003,0.6385005964508728,0.7121412715990464,0.5055296038810445,0.4109468549291091,0.5648487648838819,0.6723183348569812,0.5344979259861874,0.4766791625241882,0.33855148482023045,0.34348655047761756,0.27596397700764363,0.35977352348543123,0.479821998917109,0.4416634656251912,0.788389202492336,0.7352430148091424,0.7374571211981871,0.6733523305217148,0.6005223076193942,0.36610901522617106,0.241019944547537,0.5327252598345317,0.813937059069017,0.5431307838288554,0.4751816937893615,0.49613603008559776,0.2701526125366554,0.209977905587873,0.3241197671308157,0.4905389740308306,0.5639038011270329,0.6815912978275674,1.0,0.7565438030003054,0.6098655734441998,0.4755986088568278,0.5131341405560924,0.7092592018318709,0.5907181488117993,0.5229618861119799,0.5221873007686375,0.5161728179563357,0.22512331046696377,0.2702233240745766,0.0,0.32850038231656137,0.6085832541518504,0.8516804745151954,0.7530501634175176,0.6642885268633382,0.6621178004697428,0.443993589373321,0.4428614070231571,0.44689239594409574,0.38092250872371536,0.6375314310560586,0.5558659819078122,0.5940169458117696,0.19103506528440184,0.14019069831616465,0.2332929321465005,0.18231412579415146,0.4114646269608637,0.6313388956467909,0.8005705379717456,0.7696039266750254,0.7772225462832465,0.5570200683729315,0.5643719963528677,0.4324043836463177,0.47863266284877937,0.7660644809222752,0.4736413532440138,0.6774776225304611,0.20049812544919948,0.11360273369553153,0.08769365378104771,0.09097804937159748,0.3336439586612395,0.5358275583351433,0.6800051401078193,0.8053092084442155,0.8651032285045882,0.7902482066261867,0.4513263939741716,0.4352823107399595,0.43650473576577226,0.5332323118467857,0.4829225207076616,0.5671804852299797,0.5187389212798446,0.32459037355538656,0.18788230464283695,0.19552006495505242,0.2203458471628742,0.4330969735839092,0.4949020738232728,0.7303057716713688,0.811489855893341,0.8594619357120219,0.5711888236083914,0.5452649010053936,0.47126943829675455,0.6061867455681327,0.4235168225200991,0.5104092617822061,0.47558845827284285,0.3173218540747498,0.4945289494977922,0.10171039754187466,0.1149723705886796,0.4044568425860984,0.30631944935539734,1
0.5086202949267515,0.6538807512964228,0.7758628487973132,0.8377742917729911,0.8827733964825171,0.9372167780743137,0.8497155113919292,0.8588587647394772,0.6809499747922788,0.6070179308857679,0.47748592716571386,0.47152942875155474,0.30752043077734337,0.15143243006538842,0.15098052579297944,0.13167744956372462,0.10894715493427914,0.1151946490735048,0.20366682499298105,0.3311021577455004,0.3916974686041336,0.5400711081036279,0.6522715933640189,0.7050116510162635,0.897924757222186,0.9999999999999999,0.8928490550227333,0.9489146117226861,0.8144073422092173,0.7662639502888677,0.7119656452592356,0.5008014124808817,0.3953983474271661,0.2030815243495654,0.15518073235220514,0.03605131722207655,0.10377739674251624,0.12804676176263718,0.12839249241312006,0.22835254595333943,0.3074016439303672,0.47433021019405386,0.5760987970617854,0.6084275640180548,0.8371323275978462,0.8593700373024695,0.8670112390581324,0.909430292067722,0.8164444993227955,0.7774575855956216,0.7403682781244119,0.6271925325574566,0.5037650391379105,0.3655920973592909,0.2236605513616169,0.1612856657959938,0.08693771227972291,0.015018467651444878,0.06798060395794198,0.19210917623091567,0.3075459342699458,0.3780218045142983,0.5401242439956787,0.6056826121082908,0.7943761461052229,0.906711735651581,0.8171015648510602,0.935557481596047,0.9274280406408623,0.865472977629123,0.8296049434842272,0.7084314927540214,0.5552871045621935,0.4577460062756792,0.3866669404205522,0.23582575531830435,0.172388718069798,0.08474531550926051,0.10353462006853398,0.05962537370289139,0.15205463493011218,0.26162108212909313,0.3266479820300227,0.47168513031041853,0.646220045967341,0.7531485950558543,0.8745394454981793,0.877428585560344,0.931648954969942,0.8887278757873271,0.8976322657962124,0.8358960625429815,0.6983665701312299,0.5996461866721531,0.4285927305783247,0.3410122210726709,0.2080184284730811,0.08684133184214332,0.10028749225055555,0.045324624509928635,0.22214332384720858,0.17969598679401355,0.3202518168634788,0.41102529824666356,0.4866153522323334,0.5828296466057523,0.8049621340889876,0.9246963215851853,0.8818719179276135,0.8597259447074066,0.8944281138452712,0.8103828347699698,0.7331321415218475,0.6739880474448936,0.5206853141658961,0.36092461756510125,0.3041986165281914,0.2114963772189719,0.10244219173005936,0.09145460204145628,0.1148831278620166,0.15579721256495865,0.21797545758882025,0.38179309900720404,0.4676512230483863,0.5515539965452424,0.6736244739980303,0.7737515927924313,0.9025949340583046,0.8944114700265567,0.9100240846727949,0.9416810790664407,0.8384459574640071,0.7850282431011621,0.6513653258009957,0.44101708922429406,0.3611352130497636,0.2948576248185259,0.11188150130686197,0.12319250151875383,0.08214255789084945,0.02641800147957407,0.1595367500678339,0.20491596417039282,0.30106603026799905,0.47519968138486657,0.52037877950615,0.6921310038176185,0.9277256877697788,0.9179516113866432,0.9179516113866432,0.9831792525690075,0.8414443899002586,0.7853668910526531,0.6580855635376855,0.5972370419200126,0.5167760712201713,0.2934362484730877,0.1409289473106215,0.19202029232010331,0.1622056918106174,0.0,0.13024936836378814,0.1827800450326369,0.23264804771979974,0.3216547625106485,0.5487695319834994,0.6405489837594118,0.7584199832403026,0.8141174340435664,0.8689077626595736,0.8253460456199948,0.907505983142072,0.9286314945774387,0.7478523847266475,0.6135070608927904,0.5731810631504617,0.4534522706166899,0.28214017487744897,0.1900719835065331,0.1413696395188988,0.08326808012474207,0.1297477870252987,0.22629434840601265,0.12151882966384003,0.34499023402912954,0.4160038441551904,0.5975399652052968,0.6937992408934375,0.7758600254466825,0.8913015880892958,0.896284166559139,0.8970584471001627,0.9424914814515098,0.8143085662386519,0.7878236361756408,0.6494650287418477,0.4242655129895043,0.37171853734509286,0.29346657342212695,0
0.4637884734403352,0.6269260178225631,0.7742385738546003,0.8311558363551055,0.9251039579161123,0.9962004451017744,0.9461947823903241,0.8716821461986587,0.848360091218026,0.7074708148515116,0.5590293225754654,0.42553129814773427,0.2900979967091629,0.23808157323933526,0.16341016259661895,0.13879067282010787,0.1001986549537654,0.0945900106082968,0.2046764539924471,0.26739767083335064,0.41997864666006685,0.6040593856013691,0.7213049582708636,0.8219564420427083,0.8696135709299073,0.9643681700377154,0.9151321934573957,0.8575000139899274,0.8730343833132097,0.753648088165042,0.7320607308109829,0.5973409704250471,0.3672866667562047,0.30780306746740926,0.09417194834374737,0.1261911859371075,0.09330961167321389,0.044183741375667884,0.140193499876266,0.17314274532141055,0.357425375380112,0.4531768619848162,0.6401744033429329,0.6339291664649379,0.7698759948674327,0.86669274450848,0.9548037846602011,0.9527112139470454,0.927602119843449,0.8130600485371032,0.6606551335359683,0.5907633484046697,0.5549066444049278,0.33900482873034454,0.2585031479922184,0.16208665720068044,0.10793760891137755,0.02011542357229884,0.13049565995532897,0.1458329716922379,0.337863224062436,0.3343836136192345,0.5199145585356055,0.5909771409033997,0.8120212714765571,0.8619629301904128,0.8469932918828718,1.0,0.9702008433800758,0.8751973789582884,0.7493316131755599,0.7665426155128579,0.6664692174852347,0.5097585124532665,0.3730381303409103,0.24953003441423527,0.18713827400785682,0.07949205377873059,0.0,0.13829821896672817,0.18625513646920744,0.20340517104834,0.28651810276089396,0.5138818833983636,0.6326294272495236,0.7462227126101335,0.876520812735609,0.8830290061257012,0.9719572027035048,0.9599432573667986,0.7643093343366714,0.7923446381537563,0.6939606090671979,0.591734179049041,0.4527330993564916,0.2302628388226075,0.20575060136320394,0.11409353176263676,0.13055203887069683,0.029740042277237866,0.11802273309109435,0.2280596729820124,0.3246138024257751,0.40628922563318726,0.5941086160787824,0.6385841200930185,0.8144660820583489,0.9094467747163208,0.8664311395608653,0.9992066669054397,0.8494203614364366,0.8774398889789614,0.7496064977233754,0.6986740549687397,0.5409964107169921,0.47455682074601213,0.32692547304818365,0.18528753534679893,0.1636371065801131,0.0752695855363209,0.040021869301681945,0.11326580594051466,0.20833358297294846,0.18614192160830811,0.5049732247957917,0.5714069904451732,0.741849990662547,0.8143694120891978,0.8210013837577858,0.9370221133938472,0.935806534596334,0.8795504677540618,0.8242569108691696,0.7441171073356807,0.5174728330578364,0.509567877216699,0.39196748595470987,0.2725063111975446,0.14727622965399162,0.1849546333951988,0.09997900830392503,0.07703595449264267,0.0965417928871482,0.1788869044619062,0.3678129863497911,0.5088727015862075,0.613131796045178,0.7265560668269035,0.8156863590112997,0.923899577013662,0.9055693351565826,0.9358203840982331,0.8994120663774636,0.8440611104800195,0.6793261419629653,0.5482943966748309,0.4635030826153616,0.3443746245293514,0.22518064578783298,0.023938687101015932,0.1052093166755646,0.1895956019574223,0.1451811312968268,0.08465870726486979,0.24658369142384867,0.37292468966842973,0.4964812602707954,0.5857608635203816,0.7179749632384314,0.8918449491062741,0.9475801238732445,0.937399250872442,0.9709115307635586,0.8509850719135579,0.7804851302444457,0.6695290549798709,0.49226640641249836,0.41791967767867955,0.376850531073542,0.267732541633847,0.13038740767640528,0.0745961906680917,0.1581056173856914,0.10746541118278657,0.16794164166991743,0.3331221296098037,0.33895158302910894,0.538276531043373,0.667368086825938,0.8050862540725618,0.8449733681922303,0.9182573691448495,0.9468949478000801,0.9097240651232936,0.8532503479632899,0.8059084098337987,0.6800150993366433,0.5491378032883956,0.32599675355335556,0.2963450494758448,0
0.41680894483653586,0.6056672090029129,0.7089809997980003,0.899827123644082,0.8118730763270865,0.8655401052524972,0.834399172843012,0.8107937428786578,0.7299230889675075,0.5981614916746874,0.5341423275542434,0.3834693696727284,0.33115475712174935,0.15151872368133174,0.18193017039875609,0.07843018111319777,0.11667712679797237,0.10400041756603279,0.13554047212907872,0.25211790114015,0.320581343695463,0.49515416564797277,0.6265054817405439,0.727441006452294,0.8625212378821393,0.8540701620697391,0.7991921130205413,1.0,0.7713757584989984,0.7528979966528889,0.5437402124921918,0.494293060637982,0.32975763289984716,0.1346509090469427,0.14566974170769065,0.09101516229070916,0.054189790564259654,0.07999699919163,0.10236629768804739,0.19178240502617855,0.2969799610788222,0.40596700648918693,0.5233882574309914,0.6112791068764005,0.7730145575327618,0.8128639779103468,0.8528325990311263,0.8955188306509496,0.8533330495423495,0.7520944178034191,0.7390270611939626,0.5271361715126196,0.41140958667816546,0.3599395670994705,0.29571047605077005,0.11469145296150374,0.09902721303622586,0.012761666689457163,0.03973678314330631,0.17559083942979387,0.22708029741619132,0.3656702070835639,0.482326076938934,0.4754781436152481,0.6261454655843995,0.7815780249581037,0.7692838155038938,0.8299183455079007,0.9287250945057319,0.8096131294383282,0.7887474551293616,0.660286951784843,0.5178387663335705,0.35486110260434883,0.3135434711789127,0.2596636267616105,0.0945930371298348,0.07635735344025901,0.0,0.059958209356591075,0.16137485719856987,0.2671638539988766,0.36999300093048093,0.38607145322744296,0.5717923546222112,0.6614735934611542,0.777673122736485,0.8458624647015404,0.9192681795224804,0.8762217807365688,0.8743902134750365,0.7088627486590321,0.5759571014406774,0.5743713671430071,0.4098646659599043,0.24601983451690548,0.19579815764840958,0.14010712038576212,0.07204397821643871,0.03514465628492158,0.08130938745112626,0.17920428248497167,0.2709650846627141,0.42651435093832035,0.4884543896713379,0.5802095734603455,0.8306147829557451,0.8154176735452667,0.8941521262552565,0.8976586851050194,0.8631530570799892,0.7902415253475352,0.5991333313500223,0.5617158346355375,0.4977130023053906,0.25132047723869977,0.25261690614315313,0.18414760320581403,0.12701911225411527,0.08749132458101505,0.1091508234813976,0.17879372511981872,0.23364028803978784,0.29806900891117044,0.4019138896203375,0.535021348394207,0.6364743142054394,0.7943368640263184,0.8477166405936969,0.8521294817886372,0.9286064753313195,0.832797314470758,0.7420045482144346,0.687613991560953,0.5420167848476611,0.49160967223425234,0.29823961512023756,0.2196341539991649,0.17652686779793708,0.05317272728717981,0.07811852732766633,0.03792587248035367,0.13940465369418664,0.23529251542852422,0.31654047648544803,0.4394160347343884,0.5787417515053626,0.6634578422950639,0.8066477962084413,0.8943409161386708,0.8351566689473269,0.942586808419273,0.819316883417811,0.841083512867526,0.6496184109592877,0.5743839119362739,0.45130514331004357,0.28824806730739705,0.203335997225979,0.1798369199968185,0.06042963682428504,0.04492597839814405,0.04034137386849662,0.21137235162908397,0.217255139296891,0.3962428847762332,0.444364399615279,0.6380464104967878,0.7337764345874145,0.7809581251870634,0.8204663505303755,0.8491883895132247,0.837051168074424,0.8600167079733864,0.743904659006561,0.5882643583260884,0.5047809429650831,0.38685738628323496,0.1891322222390805,0.16994345689013718,0.1355394320856826,0.06157638267927101,0.0752285246279677,0.11904280885255725,0.15339490761225433,0.29264327888570063,0.4365093715814414,0.4375896372001839,0.6054355734697443,0.8205295793709158,0.8152577846627982,0.8587281426806093,0.8658713517387155,0.9074928426100854,0.7612519234688614,0.7511628751703663,0.5937713360935626,0.45373591088210513,0.35272284216463323,0.24780742553318935,0
0.565614125262323,0.6021748789022668,0.6450023134119036,0.7966033594323181,0.7678438823237295,0.38982214564370704,0.5813933535163416,0.4134388235329993,0.515465883419328,0.6200857511984025,0.5961623096216131,0.43803747552350975,0.43358954618687856,0.21174694684935289,0.22014934445875367,0.27579064830321354,0.22019405674566794,0.5961355681557121,0.6767181257691048,0.7756155470741686,0.7269210913273461,0.5969976795236307,0.5951295887178758,0.25561029629287557,0.22979142850765583,0.27149475759080044,0.600475194772014,0.4229656817910411,0.4153691590692206,0.25494654717118365,0.06864304713133068,0.2018694931684837,0.20525981766420642,0.3782196732499381,0.6213241571639294,0.8014207890011434,0.669244890324809,0.7503855214456647,0.6649402755078891,0.28582307295411363,0.39933675554307946,0.38031425754557885,0.5384967183612451,0.397606284818214,0.6154765749183484,0.20336023435553663,0.1898540348352898,0.16552776164138,0.08448103349018254,0.2055978024615167,0.5031157955733601,0.6729478494929204,0.7592910200930529,0.8115779454199866,0.5812426437389238,0.5086973182900372,0.3427318979237297,0.30237894566772483,0.4084251973771149,0.4498487143151804,0.4611440764208693,0.5335095350154092,0.270471402968212,0.10683341716014094,0.12234205467684911,0.1989326109165364,0.2507171784308003,0.5355118395035598,0.685715144488013,0.746582553431572,0.7606352217990857,0.5730157476476095,0.5468978898649031,0.37446675052615386,0.559242756515683,0.419696411577144,0.4369066614376281,0.5318151446476526,0.5023378070374379,0.11196804753347822,0.11766699125315211,0.07732207031003019,0.261252768823481,0.4422925239915714,0.7575937644732635,0.7396636283536041,0.8727909863131524,0.6158831607479065,0.5898791723927089,0.4218970748136719,0.5336643969757671,0.2858522437342458,0.37949635908067714,0.674715313871999,0.38109101633715886,0.260984060384709,0.10838278441930632,0.2254496986733039,0.05144181968794037,0.32200579038349164,0.49920927902352885,0.7881372788337113,0.7114316607991602,0.7532741403408031,0.48194088461290185,0.6637525121230164,0.3586573172559381,0.3880951633855839,0.59960901406428,0.4490564520892601,0.6461702158463757,0.36565354741008116,0.32686150782536183,0.09732923306464808,0.0,0.25482908514529634,0.458476677377185,0.47969568020899717,0.707429252598192,0.8667452069219641,0.7254389599148854,0.4962151390673828,0.3615953730511846,0.5520474831183239,0.27588140491024205,0.4691409946120046,0.3749240983661484,0.5867510596270218,0.34974522493949156,0.22848608607007728,0.37901851466805037,0.0929731408416542,0.44262517889982583,0.44706203254274707,0.6444830668775096,1.0,0.7183226922251482,0.4916342949121834,0.5052521739086673,0.37326278764121806,0.4136168357324028,0.4222483330705703,0.6980629603279145,0.553097199555783,0.3286425739069774,0.30509765959250823,0.0943305576797423,0.09712177352568407,0.10614467141105893,0.5519420658713289,0.49957532884877787,0.7795620373662666,0.7327434774164636,0.5883552817235789,0.5785919229328884,0.4712491483876581,0.42661751456138813,0.15703284145366436,0.34891032264029215,0.5948455482448298,0.39730554440251764,0.3961557622258543,0.12301283373228844,0.20258349595126796,0.21833735165451004,0.31512016776400426,0.5358001696545183,0.7775765620367348,0.6422118521850865,0.6749504131309784,0.726775252915471,0.6085102985664068,0.3393203001897249,0.30744655036959145,0.36127747729613635,0.33914673861288114,0.39095363296226465,0.3340849741468109,0.2953409729433535,0.21323174112444862,0.1600678786275299,0.11955992466502952,0.27569382955045574,0.5348078922977255,0.5565461544234136,0.8507160102911806,0.8328429380814422,0.531837367659638,0.41937285787753015,0.4942638107379549,0.37604113048538634,0.5020804617414685,0.4942646396187614,0.6360127953348136,0.4480972509169883,0.3155182581692926,0.2014857636446672,0.07324161230033116,0.17455424807895165,0.4703045778569469,1
0.5433764719054517,0.6490152265327747,0.6673199220630762,0.776999460156351,0.7999348192557427,0.8626737872577458,0.8365693408617914,0.7749455586254292,0.7017798130373628,0.6272903854283086,0.6251372618794516,0.45125188457295684,0.29915266702869847,0.19882220984647442,0.16289900744093827,0.0809244221250427,0.09319581368186475,0.06030431888041049,0.19927581004997003,0.2879397802631672,0.36815944026847747,0.5180132864554834,0.6157977890805963,0.6886660696120303,0.8153670174147885,0.8254450839340317,0.8078745232233433,0.7620127202164073,0.8302252000478825,0.7021151911622638,0.6010023658193813,0.48533021461439874,0.42037179717753836,0.2768378095316729,0.24449180247659918,0.1330887617632393,0.0,0.1539614360821177,0.15807308911871665,0.1967420723435634,0.29894746186780596,0.4048221991698179,0.4827882787969239,0.669888697786508,0.7131987405578183,0.7668380537365913,1.0,0.8023155534672142,0.8146908217586406,0.6729469261546037,0.7210630464057471,0.5602595621195023,0.48921927358070516,0.31242025186645395,0.18772318268552213,0.14119093386994735,0.16802911741969634,0.12012728197650424,0.052924098367325256,0.07047478570673305,0.2250089291306622,0.3753623168310299,0.4160969878059475,0.5973828438288126,0.6667737328769138,0.8153479172679811,0.7868392518298293,0.8416266175553777,0.8172101954992741,0.8429171678972193,0.7621199483124215,0.5860808175734877,0.5691400812202865,0.37464589122516373,0.2872931385904972,0.25411423800619226,0.10647151305833058,0.09582177689311466,0.1274839504183321,0.13793804800624265,0.19097166910182828,0.28934102957570507,0.4101016735978521,0.4263645084842142,0.5969094760530038,0.7220143470966263,0.7967345896444802,0.817248370902702,0.838424085905076,0.8667407345901492,0.8001872408448796,0.7603672289020675,0.6283154995247118,0.5012365363327309,0.33636359095488266,0.28731930652752147,0.1595240915146907,0.07108798720632431,0.071468451859588,0.1280542954939356,0.12430698603106871,0.2025447600453923,0.30880324435218764,0.3871760549741964,0.4753596810977378,0.5944381979861999,0.73748978358955,0.7835749036924411,0.7369284089697046,0.8338673442334169,0.8478498559012593,0.7833365872917197,0.6591973752155086,0.5699460361507208,0.4140223195973145,0.3953402914317501,0.29477648050397204,0.18154756500909264,0.11451632035859921,0.059642910631178825,0.1189780694541337,0.08479562997084994,0.2447985029433911,0.3302393037785095,0.46007368185163955,0.5311497682263794,0.6175838977317716,0.7460684486863656,0.8285704169670987,0.7957337671700287,0.8428880864074835,0.8279110073142395,0.7770839605840897,0.6609199464282212,0.5944551245397942,0.42269294177523403,0.4232772388207194,0.22483237629057456,0.18438198617106089,0.09697673405324003,0.10218826756203114,0.07303449406747531,0.20131559075162797,0.20643488591679876,0.33752376363056796,0.44210083058835226,0.530824268092146,0.5667416342265739,0.7893916531686973,0.8176518360154352,0.7787260075349169,0.7701133138535075,0.7939744022783326,0.7369154535352305,0.641614831771351,0.5972823540530243,0.36788662079871337,0.3293522700728009,0.25036848826970065,0.17680930267882317,0.14318718620462006,0.10343266571517912,0.13160862347149127,0.1652699664727184,0.20318687680104802,0.3734815276312601,0.45773085700549637,0.5565828394299948,0.6998518807069409,0.785264841814017,0.7967944007664011,0.8559104144207861,0.832841064377128,0.7992837317459809,0.7663357573933042,0.6407686614700978,0.5289576743342769,0.36924121433116414,0.26808095784687413,0.22363197577125135,0.08014297886515781,0.09052866276611421,0.0731608057661664,0.1280371936553949,0.18780196220729162,0.28847524632037935,0.40592920928493886,0.5373004761849758,0.6501381290846614,0.6996972378741303,0.7624354134385396,0.8026815384674626,0.8350185282712929,0.7909670340812344,0.7940720321779262,0.7357149894620642,0.5408016319263864,0.4873248681729008,0.43302187882488696,0.21603526001560902,0
0.447000560375737,0.6515390811017125,0.6697454253724123,0.742740011910199,0.8779621186643806,0.8768343352657249,0.9130303265394535,0.8552922353818211,0.8257145208528179,0.6678223572588954,0.5752184459390808,0.3730319495427167,0.3204814052240817,0.18085556299769112,0.09953048452087848,0.043606531974646534,0.1416232407262954,0.11270885728588848,0.14917649826420532,0.30555397645867066,0.37471876621699257,0.48347164051837044,0.7560214705094741,0.6941134194768792,0.903609837547733,0.8459958938790286,0.9213137840376334,0.87045773705681,0.8484340824028371,0.6747526288729794,0.5606079755243516,0.5322178468353913,0.304635873742491,0.21649421961865628,0.16762257240370854,0.0535845255463,0.028658926159467746,0.0667032411084102,0.03747547887406877,0.145793749031692,0.36011177343746364,0.46257073923121156,0.6400955669459742,0.689716973268596,0.8205355004912348,0.8259533177074769,0.8791467908681676,0.9108034783318664,0.7859580080327502,0.8215023391392294,0.6803325269928946,0.5739707580572617,0.5106051350393825,0.28434441960195433,0.24118757984292707,0.17058301158951367,0.07400587858871588,0.07631965834397575,0.09465009439664773,0.1801938108137049,0.21918444880821597,0.2821083694265103,0.4304350221471027,0.563309178897232,0.6598060116532488,0.7966398830171326,0.8632261725898343,0.8957822608252771,0.8529085065481234,0.8559244729322795,0.8310781442901694,0.6912242303700891,0.606443118737934,0.4431617369172337,0.2930297214434635,0.2501078620796226,0.07723383149073904,0.06415719883081122,0.06957566659274195,0.12776216070331825,0.2138401756208499,0.2862734190272436,0.3934231478565825,0.5206930946686119,0.6488215612093118,0.6721794517937008,0.8993885952320462,0.914990382982895,0.8876000341337649,0.898571415290828,0.7814881283049544,0.7449465482334561,0.637172344855744,0.5142923857419687,0.44141035046658406,0.29555144002913036,0.1431814037351697,0.07155456857523851,0.0,0.11442191177197159,0.1037711127455972,0.21251873764401175,0.4066158379706323,0.35588156057039977,0.5296688717559975,0.6961323051305669,0.7236595514650709,0.8131247685176602,0.9010304384874277,1.0,0.9007506196406649,0.7836092975213151,0.701849060458446,0.6022995985445103,0.42604401118537305,0.3711694023993676,0.2647715468090529,0.1731960282504345,0.04719221659680467,0.09072463154421856,0.04318663025710068,0.1173397129722148,0.1728161840918293,0.3524981399108401,0.3951640405803751,0.6023494061325476,0.6708989631974678,0.7843402691079848,0.846675198754578,0.8518432500038234,0.9105207852499111,0.8460483369208414,0.8121365228105397,0.7307296970639563,0.6709789336146641,0.48899773405438984,0.38732473890153524,0.2660371075710558,0.14296393159681314,0.12365255286292903,0.06968593666291223,0.07419348766100975,0.09861818718971971,0.2534659030373938,0.3101914990027221,0.4799546375790853,0.5778185414008262,0.6810193557490155,0.7534157165269986,0.9108090411060261,0.8759763460692528,0.9548779041470064,0.8170100514855398,0.8400831798612087,0.6825788672888298,0.597757266411465,0.38530482068523747,0.2656049993855971,0.22538266861567813,0.09338234155073272,0.14162822185671398,0.09031732142102866,0.07452410202234927,0.12375398867187776,0.2396827580156581,0.33948677981576403,0.5055333489431111,0.6044588532647903,0.7668382337454358,0.834835833365561,0.83384918740798,0.8775606146130803,0.8478425311088794,0.7999534718430386,0.6819184379332552,0.6898533005431984,0.5847619620861589,0.36744114379873577,0.24660000655681624,0.2152350214150086,0.08617342209874662,0.1329532571353083,0.0488891910537162,0.02521172981808084,0.1761929377030021,0.25340576313147944,0.3988242941484703,0.501924532464754,0.6605571178094052,0.7611009729953375,0.8404204416808811,0.8870922682685036,0.8955914882069316,0.8172703409524634,0.8341845932099082,0.7615272826348558,0.636673540864825,0.49246402920872434,0.4019428636075624,0.274178182454041,0
0.597437073844094,0.7290522102758943,0.8026578111954615,0.8366849342489293,0.6363613583241212,0.689170643744132,0.39979321829477055,0.3377068064088134,0.5784716983630537,0.6242900175983795,0.4217558003062675,0.611312465984097,0.3196771333657122,0.2122470506962869,0.19431060545959755,0.2824515563357841,0.43365615448900185,0.6033878016571789,0.7487967455693285,0.9055527536930389,0.8023732790607251,0.8556407566788952,0.59318780244039,0.36440686756009677,0.41534655927717606,0.5323334059386015,0.7134191052965384,0.7147065704653677,0.4404835670137763,0.23992401830860766,0.10325070174342038,0.2045617997558401,0.505407010864374,0.5286477173428638,0.5340243943592948,0.7644543607108601,0.7974529544080522,0.6853796508775412,0.5797287167491992,0.5294616599782211,0.514698472445194,0.591689254798708,0.607192335492827,0.40091713318181676,0.44345763497892743,0.40711016121775706,0.2888330205921782,0.266230194377541,0.20896413770965622,0.35500819731625355,0.5879381074471179,0.7359229147148245,0.8691067668291885,0.9434481091580844,0.7006649012877443,0.5580895471560968,0.4607883817302281,0.5817016180665383,0.40410519085998975,0.7523733937216417,0.47003560553881074,0.44055025512467727,0.4348592299695131,0.3274569050357168,0.0376123918537129,0.1427721821391874,0.4593655877464571,0.8803637965694358,0.9377055309975378,0.8400879477885795,0.554183755743109,0.6559844385604812,0.5484681223653596,0.4120410134799516,0.3889741509801878,0.5577452432859338,0.4984623523543433,0.7471620100333098,0.6005504606108988,0.36665342887460206,0.20112567520454783,0.12489173218623167,0.3109568631215064,0.6809754176654584,0.8125901728494611,0.8707268087456634,0.9386846604360833,0.7917761044265347,0.6274661714529851,0.5730480486480239,0.5002200120485981,0.5824605307365012,0.5838051639297483,0.5658890264266087,0.4736912124655658,0.3269627539062264,0.09150509013412622,0.08652548204994087,0.13263769504987594,0.3402039020986599,0.7614976067152055,0.7749918731085264,0.8888347809240631,0.840791635669097,0.8342817013926755,0.4792203145684103,0.43314994598799134,0.451773231149755,0.6390771856008209,0.7178007424438353,0.622853321056216,0.6002589092000103,0.3489189642058448,0.19043275310040653,0.2954121049881203,0.32727883962297244,0.40363353908431215,0.788180308539085,0.8152114721009156,0.8261990538588265,0.853586155151771,0.6090604475928356,0.5313804495809643,0.5127328097890865,0.40781953342323485,0.5935248019392447,0.724933869316675,0.45334769083568194,0.4667426020060257,0.19303439794517063,0.28192083855134215,0.30397555876398363,0.3152832185902097,0.78133374358703,0.8694721683920337,0.9299201713806722,0.8968387857210098,0.8053975796447397,0.4634009760610138,0.48316936902210794,0.4920000067151034,0.4735371500110421,0.6237864986337626,0.7062177893014888,0.46334888035801625,0.3564780041114756,0.14592191772066232,0.0,0.32634055258006145,0.42959103713762975,0.6550915688214417,0.7186911065184676,0.8462270702383747,0.8990030492515804,0.6480575405051465,0.5157966612133353,0.46992965446336654,0.35114910919387443,0.6034261412516044,0.4677697493670994,0.47135699771585376,0.3488831980840268,0.28493995942358963,0.15775865497922198,0.18951994715168002,0.22420885319431538,0.6188126424524034,0.8091940344262614,0.8337013425845812,0.8011441714998295,0.6814401271473648,0.5581808140907022,0.3395402558815691,0.3553928361902319,0.5826144093401273,0.597577978450744,0.7511018187713933,0.4981097682270454,0.35695501817922143,0.20893252326275735,0.14466442553172693,0.16018809501263226,0.41654222065637947,0.6111284473514401,0.7404334171125347,0.9878341626440801,1.0,0.7929899944212857,0.5904136325626491,0.5296884993249452,0.6442649302009894,0.6021782662607309,0.5285773702526622,0.6147802952512146,0.5407576805012317,0.23393304087670547,0.17941575475206267,0.2877293393141951,0.1006069785626536,0.35313276681493694,1
0.4758931953572966,0.5917506946436674,0.8716022903404153,0.8363908399959457,0.827926991523882,1.0,0.9503004048545031,0.8419728271703792,0.7521435166124644,0.712276893675077,0.5491891215774829,0.34942125949654645,0.38645469528553106,0.18919336830686861,0.19624898053014067,0.14640803834443966,0.046956706911481405,0.16950021219899924,0.16887449832537343,0.21687758449834366,0.39756374417799095,0.5605862571001025,0.6490615930871293,0.7664725256508815,0.9146080568848094,0.9246052027313878,0.9011378836907272,0.9451495823680656,0.86517685267346,0.6595099001221617,0.6719103432578626,0.5442553505348766,0.40086812872028316,0.32054169707751057,0.15737048798307113,0.13333128353165757,0.021042440308783716,0.11235100277862353,0.2233321863376735,0.17681933766300906,0.2923830502200844,0.4170536299901496,0.5812005517828518,0.6529720539340383,0.8217076027045321,0.9187837882531704,0.9506619368024682,0.8599335071424893,0.9462912855800558,0.8768496456291373,0.7756889966104237,0.6387997146004151,0.5047362705852725,0.41320613036317255,0.33797498108107527,0.12561388175080923,0.15356231013202798,0.08224035922704542,0.097350075033862,0.09160777585080038,0.23127853039705903,0.3117371904763294,0.45953716994754956,0.5605627645225757,0.7075033772374621,0.8090539939845561,0.9015362921229628,0.8646487395764739,0.8694221466198864,0.9057543757254297,0.7813343307265108,0.7582947007385836,0.6011321633923609,0.48906903066664725,0.39937476590772597,0.2178988999189636,0.12389310063882758,0.13575379741927118,0.1082064767465446,0.1050821148784557,0.2350696535041047,0.2601379145578759,0.38594181313430564,0.5123742472027758,0.5986152381326424,0.7570723675290343,0.9065491132789485,0.9288257788502564,0.9377443491951529,0.9174055462814665,0.8886794076632618,0.8237733721813241,0.709542857960213,0.5455734821295918,0.445221924982131,0.3308111508453947,0.16479565850375805,0.1397524180247391,0.0,0.11010180818093324,0.15363046961175825,0.22842064323382627,0.27951662372922226,0.42879039547547576,0.6042700858482775,0.7289326583682231,0.7782999432097988,0.871863606165147,0.9673569212145587,0.8731520882970099,0.901517267514117,0.9136098779762799,0.8083469002379127,0.6693952905463944,0.46348385781917995,0.3978873342796935,0.25747862786206627,0.2000802949495527,0.08455980928862461,0.04407945013523151,0.0071354048512961565,0.1922072618962417,0.20214839738977441,0.3314117531763995,0.44717925714876605,0.5302333995215545,0.644628348282145,0.7609878133998365,0.8519584104741228,0.9435222593564888,0.9013351302601732,0.9782703766271359,0.8806711694467385,0.7747610302049779,0.6178370396173035,0.559817599442012,0.3599846819695445,0.2547725137634756,0.17341356395962026,0.13754548671865724,0.1130192478104029,0.08264634748327565,0.1343220300357169,0.2706368659001932,0.3846276053470108,0.46253805199202314,0.5397490397541732,0.7177864408799284,0.8528791262435381,0.9742632787912648,0.8823889481307703,0.9127923043021247,0.8737755032080922,0.8729843555735238,0.7110714891451032,0.5529246664568191,0.4870231265829087,0.32210755483992637,0.17896687847241877,0.11034564278827685,0.17245815815498888,0.10287305936229796,0.11764225489783037,0.16520763957940954,0.28160675718693273,0.39647472646993215,0.5239067210684059,0.6432832522284968,0.7907493241219365,0.8480812281456094,0.8682615749541039,0.9103551857491129,0.8400565885545205,0.9608653312762224,0.8285825588190794,0.6482805166797225,0.5477025193119612,0.40429019216324413,0.37603966448827064,0.147230375006298,0.13746442795584773,0.08737375926805874,0.12475670215450879,0.12109680257471622,0.1217664200242271,0.2856427763445879,0.37425738798664443,0.5470485312982836,0.7298012724734272,0.7055052539835723,0.8318731996272406,0.896547762824046,0.9207881520697802,0.9467710612989084,0.8493763538019397,0.7845368551741811,0.6270428342424113,0.5373641006008966,0.4331176497673237,0.25141823038796013,0
0.5469692550909706,0.6092316041209761,0.7479029576645456,1.0000000000000002,0.6925371325109827,0.5687951651032709,0.7381293411994168,0.4447734088744861,0.4298163427664818,0.5161026941093697,0.6211779223865806,0.5008670758258842,0.4129522268917433,0.29577836847194217,0.5041932437108472,0.3392758604571026,0.3409030031505655,0.5966668782310673,0.8381145419787581,0.9268028931111543,0.6534963053009577,0.5518507031210368,0.5884852146366886,0.4240496800709157,0.4183503586915089,0.5573840510659869,0.6594922108331589,0.5633913263859404,0.33402288960246607,0.3261104077080006,0.16448824323242528,0.28724274360702484,0.5005950238450615,0.520958539559609,0.7203530923113972,0.8782307320776757,0.9437668866190827,0.6989236738465486,0.6152457133546341,0.5923838203537761,0.3919373202627727,0.3755718400975582,0.5263024039860753,0.7048912823865424,0.5703957582317665,0.4105541566627683,0.4080568301580829,0.2882246093530075,0.1948633085828133,0.3710657126695971,0.48635474206615514,0.756298716581583,0.8848291114876077,0.5973252120221626,0.6119942148831187,0.7134747257471428,0.457699846858419,0.6191721672209537,0.41996771460204835,0.5400899975766218,0.6101919219941472,0.49443231798138954,0.5052547576148643,0.2697861060425678,0.29610974430858866,0.20729387838398622,0.4810391568238092,0.6213843279501625,0.7061474078129413,0.8736989293616173,0.8866141383725837,0.5952828892212919,0.5647179152943951,0.4553606490239508,0.5026428307450188,0.6256033269972971,0.7192061152818272,0.6784132412092274,0.41175731917565805,0.2311246441156216,0.07894554789776692,0.30185814957411616,0.3102393898590212,0.6254978626011078,0.6268251910990323,0.8600913103415155,0.6689651146693822,0.7673791190113303,0.6277489183730012,0.40373518813656584,0.49000024261492203,0.6922200221840688,0.6351124443444809,0.8480556982381457,0.5543673794446298,0.4732826743190336,0.2588770752911142,0.25704355615605307,0.19543021765050278,0.49904488162571037,0.5428884553239568,0.9116386880346021,0.7199051283851324,0.7641930127673091,0.6513565159034801,0.4532258882642051,0.4983563114173425,0.4391996854900772,0.6610614640915496,0.5229562748884294,0.6196031044445016,0.49220349503919564,0.35296208004721297,0.271121016813474,0.29972238674352714,0.1651806102193591,0.5004910242113084,0.6124500239971199,0.7451137137698429,0.8496920903400096,0.8421817269463654,0.7518766195976133,0.46203753167837414,0.22950329661555824,0.5100880057920526,0.41105075234196575,0.635464037048701,0.48184036018075693,0.4794291116100838,0.24885131204940308,0.14190615144876445,0.16396155030922804,0.42105113430092755,0.46099877026604674,0.7905874499777139,0.9820090394205782,0.9490303805797675,0.5629065032071761,0.4557437220287732,0.5272707370953569,0.3868937881786076,0.5812809569572667,0.4397083820975537,0.585558442406736,0.6019864910300249,0.26527065001313627,0.26990849791619664,0.22435251146375257,0.3519637843857146,0.4015475009669573,0.5264740684029817,0.5764379151709078,0.9468372370303924,0.8416975859021782,0.6439086760298708,0.5243499119231018,0.5099007871713636,0.5757855721031071,0.3822470095698398,0.44478979440190597,0.4085924226824155,0.4461361302012815,0.36112493839789367,0.336517531959719,0.0,0.24112075114439302,0.5461414231975209,0.7366427292038299,0.8050776779817388,0.7239124332620159,0.664799508913104,0.5827509031888691,0.35116115399281445,0.40095013489259734,0.3983386865973086,0.6192682485883079,0.5184572424113109,0.4299660834107428,0.3799599209057821,0.36355188356209533,0.2341070182417932,0.3724532535760451,0.5027338461648605,0.5476314294286799,0.7811821656502448,0.9280708216437243,0.7490333168088805,0.693013168456228,0.47163675654407883,0.4591632131354719,0.46265514323436524,0.5948726552177308,0.559473006124725,0.6020977711724843,0.5319930913245265,0.3039221142274473,0.2290462217528189,0.27883840751553945,0.4825355323461518,0.3893458890191034,1
0.5522988432762597,0.6293009887204786,0.7461305955891091,0.825621748444163,0.8064694975817388,0.8438234992249909,0.8599680773416641,0.8594201915658,0.7004350147687637,0.6468184375603848,0.530120949107792,0.44818289138927775,0.32953299063983194,0.1653278968310815,0.1930996450759307,0.05030691485762956,0.13839214966204427,0.10643702219738138,0.2019591825522442,0.2983272073739057,0.40950354983248877,0.5491259671945545,0.6555461573813457,0.7755488062168321,0.8440923455062019,0.8257761408048448,0.9032155536951859,0.8493249980446045,0.772397182783642,0.7205782182762452,0.6330079010023029,0.5169635284279244,0.42918621630942766,0.328715772418034,0.1988750887976351,0.1430664258601036,0.09672885148819943,0.1305096713533883,0.1618110472642832,0.21444666188942002,0.4022249403842776,0.409480535967466,0.6105066316784159,0.6133313520812144,0.7995645614090288,0.8988564513462792,0.8074075748476208,0.8962519397669971,0.8899126558521222,0.8082891581470846,0.7224118842021608,0.6021792274011133,0.432790631716318,0.4528112559728134,0.23122722360764064,0.1841473597629391,0.08575880226407123,0.0,0.07011081908189182,0.10011584844262883,0.28318181357762584,0.31941734217004913,0.4408957340205082,0.5393670924635183,0.6980899438448043,0.7594964387951415,0.8948759137906163,0.9010682616372896,0.8637670003252451,0.8825277425445253,0.7781070383032738,0.6819555528251678,0.5085702460320406,0.44354887069406645,0.3426339123424713,0.2812816720354133,0.11983677577740354,0.19446219834007306,0.11407568571050186,0.05586329981375682,0.14198452334788708,0.3206419452395157,0.4221290491492588,0.49252221065265017,0.617286008447738,0.6732255216507247,0.8606921179260627,0.8272735961047653,0.9256784504179395,0.9345850881382752,0.8355603466836461,0.7945163637732819,0.727875397387483,0.5479343022266004,0.40939542737636886,0.29982160890337506,0.17603558371168188,0.10445846488264277,0.11464192431378845,0.08805918812800811,0.1416052488724563,0.13569227516051147,0.2855612983178333,0.4428565503038168,0.4772671180661604,0.6405233475032773,0.6698391298039463,0.7731687427554697,0.9088016412495883,0.8800128550938013,0.9449248960879786,0.8341702056035629,0.7534514106700565,0.5825335642268747,0.4915291622751909,0.35751819284987174,0.2336444474914015,0.2120018504499372,0.15698642098719373,0.10889461741631962,0.06658952314644467,0.15555010128266378,0.13999273687002767,0.36900965799811297,0.3793507476335883,0.5073349611129427,0.6722146567335701,0.7751448537916441,0.8383811757090049,0.8393454032743273,0.9360954319463763,0.793694890612737,0.7387618998469806,0.7029733580141313,0.54606574387803,0.5256230480500825,0.31071978557733576,0.3137898936072824,0.20822664788251766,0.16116254286581455,0.1668017497420125,0.1104088174328105,0.1175306769389371,0.23531759428116245,0.3210281714025546,0.43307847453516335,0.5880570620401248,0.6818327786910142,0.7580639618483889,0.8452814908120605,0.9109626132661945,0.9250006041684761,0.7842347076561218,0.7656402237050909,0.6754308791266973,0.5197938824372849,0.44160078170820866,0.33568015394788253,0.24863699855491994,0.15305519777954318,0.0678851362456106,0.17238107050298462,0.14996449045164262,0.19799626284056643,0.3039669394385903,0.38211636791278697,0.5433367147306193,0.6135578534401988,0.7199591155767578,0.8331969012307537,0.9300128808750048,0.9524161116126126,0.90416569014689,0.854330442737143,0.7836351453467851,0.6933360488383467,0.5892348951955653,0.4069399709378463,0.3553123159993171,0.21954872537962822,0.16121537082659115,0.15228749315447082,0.12456159815598444,0.16518230331394934,0.1797877888283822,0.3493066584754706,0.42945657138541365,0.5271513475470958,0.6839789898629931,0.8478387023250455,0.7786395248752498,0.8442363644187705,1.0,0.8890149226637141,0.8244908470880592,0.7275682430470282,0.6740856063068177,0.6115869503693452,0.3602206833367625,0.27245288735437034,0
0.5026460504784257,0.6628855712640199,0.77655911740187,0.7723091083074538,0.8787974189463763,1.0,0.9389675339345656,0.8683005306785043,0.7423586106973747,0.6397257965998888,0.46507656732690594,0.4155000275766265,0.26410162019646094,0.13803467392574786,0.09881373443218527,0.07516591718903287,0.15095536135134097,0.025849112321353063,0.22261270363099717,0.3203678508929376,0.3679941339056496,0.5488478042845162,0.6521048889713035,0.7992339241863216,0.9512147101205826,0.9679133491120072,0.9815764325622207,0.9158452731149931,0.8057837773029843,0.7678419639706934,0.7114787035987453,0.4532907195980934,0.3388466060342317,0.26735013219158016,0.11413418182373297,0.05151606958241162,0.03493846281768742,0.0,0.0658541140965983,0.22597209505764043,0.24723956695433663,0.36457379478339036,0.5451626571878233,0.7373952401082597,0.807700472492977,0.879652359461998,0.950829606740224,0.8774536155116415,0.9457007260959955,0.8693309988475685,0.7305364296867884,0.6696403194030376,0.43710263617065354,0.4050479893273145,0.24042696358210086,0.12241289105983716,0.07446561118641432,0.04732967193884191,0.12555991100936076,0.07910136902095921,0.18533668586581825,0.38483847200470156,0.4440866561309972,0.6482254276355821,0.8114795286478931,0.8224399954907019,0.9472230447157179,0.9023427979354103,0.9862543574882916,0.9178527391483207,0.8503106280738688,0.6902292753144317,0.5153365857402437,0.47681101350174426,0.22852753322912228,0.1923958562427065,0.1613356174283463,0.07445643430178517,0.1411486999715434,0.1275606156317186,0.11832146748650874,0.24857899777074488,0.36805316174668967,0.43364590419590315,0.5978917467063185,0.7379579414486641,0.7704649025368555,0.9317701292353096,0.9465856172918059,0.8691331090929406,0.9103593589825306,0.8363823710772449,0.6989548435709003,0.542025759511288,0.4468975116859735,0.32205645913425096,0.19577800585406702,0.06452607498957719,0.07120590074421451,0.110266558831358,0.06733277841595647,0.26515261451886696,0.25243818998086354,0.40477514934114134,0.5091559525474136,0.6829666897125994,0.711851891999569,0.8580645364133912,0.8909642943419531,0.9646580656524155,0.9804220001345906,0.9023283226058206,0.6697958871562402,0.749345778915987,0.5358926924701282,0.351473635716381,0.26874886195646586,0.16674916202329776,0.057212244072329776,0.06310847999010638,0.03436273041555482,0.0916783314138751,0.16298398399630315,0.24156030868427697,0.44360693421457986,0.6002469205609404,0.727556512352135,0.8537888013032203,0.9154100118567987,0.9246734109831012,0.9946348977902517,0.8617491911185426,0.8111292092931809,0.7053861122184264,0.6730003125243497,0.530937748325779,0.37601279052872083,0.28200952094727816,0.09781378610378338,0.09116636177593967,0.04651792113632114,0.10863561711057185,0.12267906231309444,0.2024502358552333,0.36238485074630955,0.5107912621702582,0.5771164275992806,0.7316847953573042,0.7926777039868278,0.8031165077726996,0.9637193815243041,0.9796447439168774,0.9206920088285007,0.7405069125550869,0.7035875024818317,0.4900787241235406,0.5160825912372329,0.2728256032309555,0.2636805272451138,0.16154808971479373,0.02493969556176978,0.0014973922663895634,0.09697824866975158,0.10969047443137442,0.2519861157026405,0.3483161914333244,0.4246271125613966,0.5394196998348311,0.7736486885143837,0.8373036088067127,0.9045488478879937,0.9894145816298485,0.9981425567792305,0.8796854972137176,0.7884980770421648,0.7113334178289497,0.49521131323155765,0.43020490405882134,0.3162397363143058,0.2126762763794765,0.014118597973116764,0.024160813141096804,0.01627465523063576,0.09890218572658138,0.19185368225518717,0.34410028580528074,0.3808721280938805,0.517083843251913,0.7249555826183304,0.8042599102050023,0.9402697144275485,0.9535509256906085,0.9060778801166278,0.8749252349460184,0.802726370479437,0.8072980588319065,0.710662344665941,0.606331064414191,0.42488178761612816,0.31433243623570023,0
0.4532632517251188,0.5743188138095383,0.7723830805219823,0.7267396111906625,0.788908849116355,0.618693121943284,0.37180411964877624,0.3849394252678751,0.45892881387152135,0.5486450257351614,0.6641061882884502,0.5794580848731749,0.4019683705349742,0.2457283957289501,0.04707270226863197,0.3608449156844345,0.35588972974661204,0.7280580399890341,0.7719546436077744,1.0,0.8291923950238965,0.5282232426590494,0.4719393236266792,0.43870757460965626,0.38315329321745273,0.4855934780907035,0.45083995226909845,0.5629989037850314,0.4963605928254514,0.2543780486143971,0.4021547889563478,0.21221321643265695,0.22416407654822845,0.32881740116777936,0.6701330573468671,0.7723424567178699,0.8848336772083147,0.720130991760102,0.49463081172660495,0.6350048235585865,0.4855136986761259,0.4578259249837,0.5585641399702653,0.6188294142041217,0.4105520590620675,0.4384350028118469,0.2518903755642962,0.2530197981374753,0.16383554486898644,0.30617838402903147,0.6983828010815778,0.8365610454644957,0.5275388239427431,0.8947385417562754,0.6750137102443392,0.4864640143363118,0.3731101713301169,0.369545885683367,0.44562617436022994,0.4649741245445163,0.45142560352789873,0.4066566828813113,0.39845155849730873,0.2528569159579359,0.25148130811551306,0.2637322295420616,0.31805335742686525,0.6725439814623304,0.6887125921127977,0.8780075451327392,0.65295818938833,0.566303760104615,0.47380388976801874,0.5081175280468783,0.4847401221013936,0.5335855000641627,0.7415676890569197,0.3893055459481621,0.3593300142392215,0.22123398765184282,0.061993324225859125,0.152111993537215,0.38670953055469826,0.46005088037867337,0.6687862248894747,0.6571806432044187,0.73628657066916,0.6672132084379014,0.6300785377273227,0.3258114300208526,0.4086379426093288,0.5881127547239093,0.5158385361072003,0.3892849109002085,0.6312537811026926,0.46213664047383807,0.3452052348212427,0.04967575440123956,0.3802516251705052,0.32717647059534466,0.5463415755667803,0.6928265536177177,0.9050741728330715,0.7599910353749209,0.6966897098715382,0.5327072058089694,0.4452299046709013,0.3767270715048262,0.6783067225447225,0.442349160237422,0.5987855765286023,0.5086181616763139,0.44438565867563795,0.35354831263561826,0.19452802341550907,0.3427510595416602,0.6276242368079139,0.6591188971764809,0.7013959168727368,0.7820590075459575,0.6179050321581252,0.6324433687929846,0.5816361687900244,0.4365109060026883,0.33750334732401693,0.6340060893617562,0.42073411855404225,0.40024402296110645,0.40885438318833167,0.3136787090934736,0.24553271144903538,0.22317083135705362,0.5143446129784137,0.5577386002164499,0.8192858802959888,0.8869186658153372,0.6790995213645941,0.6665560179055526,0.7357183986138263,0.4173732626316421,0.3937095955100645,0.5204958667193802,0.5229511481348507,0.5008006453792558,0.455697361920101,0.4960419174175162,0.23642112057603376,0.08564067420891841,0.13649714165669063,0.6273419181843494,0.6093589290476303,0.8154099178692668,0.7531831468512142,0.7838490583227828,0.7552850033105285,0.44819875417391625,0.4891192801131157,0.34550079649466847,0.7098957163329336,0.5992130758520205,0.5146755294537625,0.4245158100564996,0.2715117865959661,0.1774651341067321,0.0,0.31754206119448913,0.49981963586764816,0.7411165427418743,0.7627636199301429,0.7385303652235101,0.7071716711406729,0.43159348282649546,0.4858780736440117,0.284797798029429,0.5911057957212407,0.615254390133311,0.4939844685897399,0.5768485251708997,0.4072608734791767,0.1798508800753323,0.02510751545902834,0.2749671582711902,0.32532735404373736,0.687576077569352,0.7559267114612963,0.7601326488673612,0.9340804811135057,0.7050265382828688,0.20427204585125092,0.41077977011787753,0.33823154917915904,0.4483803455378918,0.5584296101074981,0.5936618067062976,0.4984692216507018,0.4376529170303729,0.2873952420715191,0.2572166129234922,0.31379814178767534,0.585539777728248,1
0.3915704231782636,0.5547316783743077,0.7493874851781089,0.7805153805140863,0.6990839638621291,0.5209014456908672,0.505601184399143,0.542246261793105,0.48588139129409436,0.6514591497150882,0.617027673626933,0.4217427392814017,0.30656432874353173,0.1691651887229783,0.16574473365536224,0.20307071496662782,0.43517007941379976,0.5690206857506975,0.7743854097203705,0.7149958651872294,0.7956267582814025,0.6049052035170155,0.4660047510902834,0.3826591482464184,0.5852440085560425,0.4014825537798867,0.624062362090581,0.5494386317522353,0.3404252886731933,0.30003647838030145,0.0,0.3427540854523161,0.2454587785145932,0.5618861801189634,0.7814272170558598,0.7421784829437762,0.8176951795572756,0.7461038106318172,0.764584695507128,0.4594019848783769,0.4298419733943798,0.34176559107000615,0.45349761292021773,0.5233661600893216,0.6448389377296797,0.5832854002155615,0.3196817251856364,0.22028694836408513,0.27188175355803884,0.28205037043185543,0.6690429230346101,0.5946553153059644,0.7755356644735603,0.8506326919244935,0.6327192866949132,0.7636674390173125,0.5103994115241323,0.5301350150914472,0.42596257321032815,0.6430362321011445,0.6356478081523511,0.6294476665007958,0.15608792387544462,0.1588967362409836,0.21296815146930337,0.28481243277613516,0.4161046238048044,0.48355953138470426,0.7929084921336111,0.8483881692479422,0.7525566590073196,0.6166711616052679,0.5805511683390564,0.4223705942942301,0.3439981046217926,0.6494597082513788,0.689463691861573,0.5382279868421271,0.5178551607534988,0.16149436956620355,0.18510616869761892,0.04010005695462787,0.4120325642954275,0.36590598810268304,0.6561856111665498,0.8273082729474945,0.8800402198774385,0.7514637996971566,0.6688255189203848,0.5346131339689619,0.5550984770794243,0.32207285020089427,0.5019612593705177,0.6080812614309051,0.6513305377633047,0.337587557101393,0.4290458105644485,0.2151332289628402,0.163779702550361,0.27635299975587135,0.6500580480322565,0.6937804208711968,0.7963132062384856,0.7884023241019316,0.6664536070618698,0.6896958283994223,0.47711193287374654,0.3931238541478983,0.4408211023981942,0.7139904266661462,0.5068683723845114,0.5169973446378175,0.3444991226410823,0.25032622624808126,0.3135824171444294,0.3045463233944887,0.5348290758146396,0.6870037748251174,0.7525750810371286,0.8598888534565269,0.6701759173000048,0.48641009772563615,0.5295689799165282,0.47685139836613344,0.5015950628361894,0.5325818016698805,0.562175722993384,0.42831832476280446,0.2423124247077298,0.3547919576878395,0.2678095179795122,0.1869222370022089,0.4778401548896254,0.5882400802891835,0.7552619510034381,0.9999999999999998,0.6773769988256011,0.6721221093413019,0.46219137625536544,0.41640040846843995,0.4347305441874856,0.4908302386441629,0.45796856950781,0.5682771283407285,0.4125059061853704,0.46376350368107894,0.29918132995563396,0.21365271171545153,0.20835079969763104,0.4342442192133747,0.6864554806615315,0.7441645241365665,0.6760194378708915,0.8181187414541474,0.6681076120929287,0.5241698113295036,0.3674651873252398,0.5446457376883234,0.6263464959934998,0.5927240271132257,0.5058547939466206,0.40433467851503624,0.2639644734993981,0.158181619382541,0.16359783984896292,0.339267960805301,0.5831196855039419,0.8252810701313114,0.7248189779724485,0.7371789381608372,0.7802401307924207,0.4821624943533209,0.3564479208256306,0.35070741268917466,0.4654245070672517,0.6944664964630413,0.555493379953535,0.5333490988052807,0.2746592802916154,0.3481626823552917,0.2622054231415221,0.1858255077960042,0.3187834341205519,0.670238728213686,0.7313955739193836,0.760760239771505,0.7404095834553783,0.6700053042790781,0.5825033022658419,0.4706941611194231,0.47268390600782195,0.48675896103101257,0.5758372719699952,0.5181343808931351,0.4394103949399723,0.45612160201494995,0.21596824461457215,0.15325840217113185,0.21767889601597168,0.26079846845703014,1
0.5441771003445801,0.6107648954697585,0.800459817301938,0.8290938674550827,0.9305973782507679,0.9818078408906998,0.9328188715188643,0.9036062887721152,0.7782279542226885,0.6826017338086909,0.5569811435497822,0.4040728047217648,0.3062925656649246,0.14348873919041755,0.11310824286514459,0.08095454791436568,0.07973350626489334,0.11670390636844724,0.19626105954910822,0.3203177504608822,0.45787112182712814,0.5216816886620484,0.6242900868019824,0.7431718641829896,0.8543377226772684,0.9148649513204288,0.9140207099097373,0.8693991353603066,0.8464075036352017,0.7829587987114177,0.6863969260203433,0.5094005485951207,0.38670402317210073,0.24594904097162695,0.18684144754243914,0.08401500844245441,0.11355884311447773,0.019456956092391453,0.12645623055093574,0.23466801292640616,0.3362937671248896,0.568059799442151,0.5970174951152291,0.662627192311856,0.808377019145045,0.8158761904102352,0.9344632246625241,0.9094611953823313,0.9530651049453471,0.8223696475204486,0.7433698184059274,0.6023958449929152,0.5756146199261138,0.35957907537746636,0.3378659537498232,0.20319198171266217,0.12978721216313527,0.10292029033202454,0.12113618627776174,0.07599446833679985,0.23421282740161342,0.39450987865090326,0.48246766732135643,0.5535037464579401,0.7322498028516105,0.908578740571972,0.9607397472640122,0.9407808659981542,0.981915875942142,0.8842023306679477,0.7508162710488896,0.6805412555028638,0.6652380397286866,0.45657958821269407,0.3326795480137841,0.22086299761191136,0.23205291839092795,0.1698705623950834,0.18310990440695973,0.10765086227166115,0.19065621013061673,0.20701757801520798,0.45236552879764563,0.46687186027181016,0.6546837229740199,0.7147523010962173,0.8309309340456978,0.883696279782894,0.9203777665545889,0.9110760439551009,0.8604651815084825,0.836283518316814,0.6435301096343427,0.5753213500484083,0.4885708134290162,0.2918224900773081,0.1792184953601758,0.12431833268518383,0.1439494476911159,0.09910111175461833,0.1042427052859618,0.21972997546951512,0.252284767978649,0.4495630953791201,0.5672040427491878,0.6628023949280583,0.7519229558420641,0.8371555128013218,0.9530050481953881,1.0,0.8977355970753251,0.885741985855496,0.6853888539132981,0.6356583480398827,0.5320403404245644,0.3653407538315684,0.24552717982523498,0.15947139453172132,0.13307502072436694,0.08085033639480627,0.0,0.050709675010011335,0.19561461247127537,0.34807259780958033,0.3340532353618796,0.5604777953947361,0.6831784508793537,0.8721977996224274,0.8757150592645782,0.9544029432519189,0.9513680182653349,0.822053464501655,0.8790481477033669,0.7576566738004569,0.6515937147279435,0.6696977266849645,0.283755112053992,0.33322669973053604,0.15581037370754813,0.12141121615011008,0.08510291050954566,0.08595120611445145,0.13439739865993328,0.2603807796575647,0.2929020844717717,0.5168544681370065,0.5960420769870075,0.6858976526980335,0.8159265446984546,0.9611809393700554,0.9204221130885275,0.9564101513763457,0.8685267651112762,0.8567020804957428,0.7497888896537193,0.6775273325197371,0.46081318824504935,0.37190784534498655,0.23797758175663875,0.20589044246547955,0.06901720833515057,0.11972040629654601,0.10611740706854866,0.17518007196053365,0.2761973099655633,0.39968941197859775,0.5121007877143429,0.6545950165719607,0.8298265677041015,0.8986448923931469,0.9570920997143291,0.9269299785844476,0.8960168840261602,0.9251361874679758,0.8381206699983679,0.7543940893847846,0.5398572921451001,0.4263111073109983,0.2433789881236899,0.19321654312478787,0.17709772504952764,0.0731427760822172,0.11830031718766065,0.11889725731091288,0.21285586901903925,0.2503320715412824,0.42392169476514885,0.42097545850147244,0.6680030335927504,0.7178625664197584,0.9271649463476999,0.9634392462352197,0.9672118060660007,0.9905682526449345,0.8252115453945978,0.8503123222068081,0.7008988258034711,0.5232016021723274,0.45331264465844107,0.23822435407536036,0
0.48606088753084314,0.6208286501254314,0.8666266438756896,0.9680600421729039,0.701301866863242,0.6607110418572212,0.5039600527545043,0.3389508293159487,0.5082003625325001,0.5276636659079104,0.5176573438991141,0.5122330357957925,0.40306980263589076,0.3911676355504821,0.2421245219396972,0.16191900958505084,0.5325207213365869,0.6537224590380337,0.8050274880744506,0.9218813483443835,0.7996320633982551,0.6360516656787523,0.5865135394756678,0.5393550073129288,0.5248610167139605,0.6194984174751541,0.6095317856746668,0.5064361496099539,0.45273176562835943,0.4954003497498076,0.2705386458036094,0.1461588959768984,0.2257005272303116,0.38834152564265406,0.7638114619443102,0.8473027332941396,1.0,0.8089971915782869,0.6837585911620855,0.6909863550894916,0.39568164012214435,0.382198830984673,0.622010664020881,0.5856127732727862,0.5923867920257319,0.5628214232866839,0.3924162694649401,0.3760507352410644,0.18702762668367146,0.47070096540573525,0.5154014585465387,0.8988500356841018,0.8811755400838279,0.8619974209243788,0.6587970325118904,0.5330766508937657,0.5285859472016143,0.6359833381482649,0.6730244644733099,0.6249612520291565,0.5640123895723615,0.5788064883812922,0.5118851710308122,0.3027487124686111,0.20604925067223712,0.3637929885213834,0.44479486413900476,0.6269296041829895,0.7979611384148417,0.9034063104421335,0.7624627013201146,0.6522106694626337,0.5489756658886757,0.447892398546832,0.6346688869197007,0.7213363410300523,0.5790470240608611,0.5122656420653469,0.44274833475678044,0.38957473326980063,0.24706236796152553,0.14175635551134447,0.34721670230041246,0.5781134718847302,0.8102792815067057,0.9854718489525338,0.7928109726388615,0.6810638132103897,0.5815524466243035,0.42326187842972224,0.4203536243405174,0.4637593329807874,0.6132402289546731,0.5332455364479658,0.6205449936083882,0.5297167406924825,0.20713589749604855,0.1274688361713397,0.23690577848679817,0.393754687760086,0.7297507732783534,0.7764397683775552,0.8827159568202205,0.837559615761263,0.6063477821028388,0.5349677195039656,0.4844902548029335,0.5245296164584735,0.425725916809904,0.54954833224144,0.5933509944546429,0.4690908694667705,0.2559303614313947,0.20536204378951795,0.1232917234092924,0.45032823924804105,0.4763107860682224,0.6870574388392346,0.736087343079011,0.8607061070855457,0.8192605721907229,0.5497742269507563,0.44212687835620545,0.436519721953599,0.39084072242697576,0.607109333808345,0.6721793132330987,0.44307414373997844,0.5331523587496357,0.40278698061605533,0.0,0.17014294127158447,0.34090747533585275,0.6311235236289725,0.7926162723759868,0.76267852180611,0.9584582700583317,0.6486077334409758,0.5068517645402973,0.39342408796779893,0.46969283593215,0.6144928276369492,0.516239723473659,0.6183590179793719,0.546913518990961,0.40090721156309184,0.3122686784949972,0.31767041839543275,0.3287419869218858,0.5558190148051373,0.5626384236603751,0.764642178996783,0.7510444593756821,0.8289525357848964,0.7608693756232686,0.5098702954436232,0.5051416627433057,0.37195628638689154,0.5641487347105636,0.4607823954008743,0.5863336251364959,0.31680061675628063,0.49733677050878644,0.2501136531406367,0.24436735358529615,0.5253578006646141,0.548684529862952,0.5863986357254104,0.7966665962364758,0.9993552155106137,0.6576049449833755,0.5651542213701012,0.6383500806471333,0.4142466466983559,0.5154428261115731,0.7015751848598802,0.5556057798279224,0.4804546247887572,0.27148820461329226,0.20911379533146446,0.16384923958499242,0.25182147745735134,0.4592247460063697,0.6166350085911692,0.6744983907046773,0.9639047378089272,0.7063891365080959,0.8380041701645478,0.5696588002417994,0.5758124518411715,0.5376726587539744,0.6794551909684328,0.5971199206262388,0.5693521504654427,0.5333286189414573,0.3531829842803547,0.3068581389646656,0.3772168943043762,0.1852554435854722,0.4973355327981365,1
0.5748014596045606,0.8851496392063545,0.8336012972065869,0.9707216422538623,0.9262597036111506,0.567675409909885,0.5688136747026463,0.5505638288260656,0.45990481425333163,0.49788067256218743,0.5604272282123737,0.580301771256198,0.497681906253728,0.2923645136462059,0.43429371727348076,0.39732175040449613,0.49848924291901864,0.6209444484696918,0.8359612120635853,0.9994914956958205,0.9353847549083125,0.8084860703175245,0.5649991394849209,0.4699683352361534,0.39418909938485747,0.6333951440140504,0.5009756641886882,0.6290613413633209,0.5019805964428765,0.42312590407561607,0.3937099547318134,0.38523965254430004,0.41850439477132345,0.4672966413452955,0.7344860094865704,0.7919493592776204,0.8333454613744908,0.8508590085938486,0.5801866913546542,0.5117875254504305,0.4134306383614002,0.605247874346996,0.5785067050388966,0.44347806180291616,0.7523575603665897,0.5799856383638187,0.16594383471159407,0.33060720647366737,0.4238328478647775,0.40307254207080295,0.6331961099189605,0.7730861162142857,0.9422115827700515,0.9634116629735803,0.6451366358925449,0.5518910471910855,0.5353945207043955,0.5454286194831701,0.6085673717559896,0.614678669474849,0.5585018683501946,0.653761932105388,0.31961919934730365,0.26022468884663197,0.25919379914286805,0.3712517468631159,0.46978131240514,0.7680744596171554,0.9669350303280325,0.8415778173881967,0.8662376390744738,0.719569010105596,0.5404503319186945,0.33879007240211956,0.5661717567388158,0.6410231555237303,0.7431844505908412,0.5880253048126852,0.4538581687371132,0.2921221200123089,0.0,0.2340248800707566,0.6379379005496927,0.6942084820124188,0.6804776211383095,0.838727000606754,0.8356500936863803,0.9086154234598414,0.8447814634145377,0.5462090709407722,0.5366209507611184,0.6053584812449465,0.6212841960000659,0.6696817804337387,0.5894443129828358,0.5030720345963743,0.14351756456594789,0.21449339868520045,0.19581156597042565,0.5201412668898461,0.5885542816363769,0.6868760855650722,0.7359320583303594,0.8924632017726013,0.6408667557204102,0.5800912018708978,0.6620124532407864,0.5585801920515224,0.5386696550143282,0.5322898542981578,0.6701447527777906,0.528534075768903,0.45560366768538624,0.07002941744283897,0.3655227691251133,0.19824161796278822,0.49284078263045583,0.8632878197752338,0.6679334538888538,0.8850924287146975,0.7818049783211035,0.6664105404093628,0.5857139346639562,0.5123688376570301,0.4230051657231376,0.6202625194617155,0.6439369235973806,0.597879998924403,0.677808049583913,0.4717089518544983,0.4302259988204139,0.31634568955066605,0.5828982868140475,0.5415383650638053,0.7693906998531355,0.8419034158367247,0.823962112014452,0.7575295644914771,0.6348936271806277,0.5654303165426651,0.6762475356418316,0.4323632655605329,0.5223191705284604,0.4162448188937571,0.48711993223267436,0.3905244961355787,0.24142441142560728,0.15369855182222614,0.33513106620365074,0.461134223475829,0.6187080872758884,0.8666406865942669,0.8461040664263446,0.9360007566870241,0.6821959275623489,0.5396329901156598,0.5364874924287418,0.3509429743308917,0.7093756003028637,0.7156076038275944,0.5462536221352073,0.41157919686207856,0.2834189424741496,0.14484750314610484,0.11619428475852883,0.2540906980792754,0.3368866533541251,0.7378028806881383,0.8732119044064852,1.0,0.8710918611819419,0.5749671514560809,0.5154338757181828,0.6131753257477698,0.5169963883370061,0.6382875723322177,0.5887037596769665,0.5886294288445871,0.4671141503923476,0.2942522841141031,0.35543116164008337,0.22491187380070343,0.46772428978521946,0.822853829342697,0.8579827178019581,0.8263892125092732,0.8831736135254491,0.9473662405292653,0.5962705765164851,0.5900329384687688,0.5248366451926922,0.6103132708730575,0.6323264557773578,0.5376314106099497,0.5744126051067626,0.29129989878757534,0.2589186865990907,0.43613300052973436,0.34788446470190504,0.45279709641328125,1
0.5097753583705649,0.6705610431238761,0.7431063968949849,0.8731720691284723,0.8438864620566138,0.9290093052853937,0.9259256721136107,0.8746735003460335,0.7230116458044389,0.7361172556724245,0.5279305289571364,0.45148458161568095,0.31866181075138345,0.2592719366862117,0.23497095327776207,0.04929637239265816,0.07377957718025291,0.14428672706443246,0.16001847032173638,0.3372674966002735,0.4572674060561963,0.5713916793539059,0.681001138330317,0.8375248042023353,0.8167596454586677,0.9212022422393051,0.9042077832143973,0.9510239316935338,0.7793384199936226,0.7664575327776748,0.6702914360617427,0.49242359110944234,0.3803173215231853,0.29161231117944575,0.2358991410471365,0.08667700422756225,0.06320388760268475,0.15350072626233602,0.13937644286358314,0.1959613247863376,0.3629731537654088,0.43262134979596223,0.6225030275983869,0.672281137364008,0.7973080441643592,0.9213106744214545,0.9167108674565156,0.9650384745288139,0.8998350776439148,0.9196760115888432,0.8072916483681951,0.5703363793738148,0.5222922407930322,0.34208164658137713,0.2729218826330858,0.1792470473117863,0.07457581494095428,0.14171840215750836,0.12258256392130712,0.1554281933274015,0.23403889244479298,0.36729964643904056,0.5016708890870908,0.6053637569127559,0.6093619674057539,0.8269106643061832,0.8357743559563848,0.9227899009314796,0.8703266161209635,0.8298637566498913,0.8670609033472648,0.7007934438519092,0.5784659884284795,0.4890100162409491,0.3312954169014404,0.32841166839288843,0.14738970392580308,0.12520998192393762,0.1386506656498399,0.19122101197797525,0.15480851192898104,0.2602508918921227,0.4447317983384147,0.5502054353306249,0.686248949141735,0.6974255142821735,0.9114926953017184,0.8765403929231699,0.942617862435119,0.9164100636120176,0.8368982426478314,0.7330829747303459,0.6126483777821263,0.5687252962405722,0.37354119761055127,0.27082463488243635,0.20808444354264938,0.032763471208889006,0.13599573029512368,0.0,0.13312264209197788,0.20695874267919018,0.3270395585629512,0.42018630386731715,0.6324967624576621,0.6801521006690825,0.8242813074867811,0.8348659741703666,0.9235270497504288,0.9999999999999999,0.9037803704393426,0.8642040178437933,0.8087290009535578,0.6251487276210796,0.4415577499313701,0.41726059346329036,0.33239027092646534,0.13926189567320513,0.1580313656270132,0.12753325820490324,0.011089230215861834,0.11158559422676279,0.21195384764671543,0.3249177207223443,0.42194023766525957,0.5460650821918305,0.7701191984537481,0.7994881736825312,0.8525989173783708,0.9244656455462048,0.9558645984603209,0.9047443185272863,0.8280296544889141,0.7143307355419217,0.5982383466402775,0.47536539544271295,0.3904818643351179,0.22324512781994177,0.19285933063494998,0.17799365867419903,0.11101722079191517,0.09858024338120425,0.11296791477318502,0.31851236364810587,0.31242315331766185,0.5201322675767709,0.6373518665093136,0.7181162010200624,0.8151849650617088,0.8192573262420638,0.9453940799107339,0.9551467414900264,0.8435815754178928,0.8087845224218908,0.7157906458587233,0.6195768032420188,0.46895303344589256,0.2786841193138927,0.2180656456983433,0.16823956997629314,0.1451698456367504,0.07209398181249449,0.2157473878536444,0.10652358027030495,0.25414495947237664,0.38785133472248057,0.5078554457317952,0.5895791866034463,0.7735342309005785,0.8621838519994072,0.910450542714248,0.9484646288427024,0.9048651913319508,0.8059413667843286,0.7622389398044724,0.692290538630553,0.5705572857627557,0.4391811830868482,0.3413173730284209,0.1928712091273635,0.14443954399606185,0.1273277840276525,0.09741050535757934,0.08427274569659488,0.16604598310956964,0.33930661274224233,0.48027304121788633,0.5971932909089698,0.680815710445882,0.7297304140773668,0.864910799581251,0.9839215358234036,0.961074243605673,0.9050463979545214,0.8824874786082091,0.7144502850703032,0.6270993751030046,0.48669629946569554,0.4262264791273813,0.32088678721460634,0
0.3857189544449988,0.56399711496767,0.7813489988946002,0.9329647524506828,0.6798211191056504,0.7375320249158748,0.596097803060235,0.48596233983430404,0.5369107987846927,0.5970032961712732,0.6071750328069049,0.49935064881419444,0.3833505505951657,0.17334279067818292,0.0,0.35082675718685646,0.4185407354978633,0.609430753559959,0.8164050389692237,0.7735817972979896,0.70972589081587,0.6487036815329972,0.6666259941912959,0.35752759555882685,0.23012387209032487,0.485218146646922,0.6930714131712051,0.41947156038084565,0.3793179888277336,0.37347174379820247,0.4692222518378057,0.08196998767404506,0.17188451054089599,0.5157283158204748,0.7966895254523485,0.7647408519884454,0.6945478123070944,0.7967225555532508,0.6743376586603346,0.6645861918550947,0.5187770788455506,0.569040782782092,0.5354977558261579,0.8187637087931443,0.5148978643441106,0.3784026287285316,0.4621378110489074,0.07311425860699755,0.060342984706621194,0.37761639980950756,0.5677451332538099,0.7310975046997112,0.9369864215962054,0.7361321244255129,0.7091508566994089,0.531432132691712,0.3916042093821125,0.4588434238539478,0.5977247045920755,0.7757481971186241,0.6407242824400274,0.2807096891246037,0.37415894218317447,0.2552263992448645,0.28880897077660883,0.28972870561667247,0.5589012692121311,0.6844344867968848,0.9466387912793914,0.8087732674592549,0.7939687264290498,0.7221570420885415,0.4667814652850938,0.3873071738907673,0.42351096040091446,0.47788613608752106,0.6406191118345353,0.39806255665067464,0.31891301175895326,0.4930550529845158,0.15196632759352402,0.23455963944700187,0.19486485615280674,0.5348956350840445,0.6544485313354416,0.6925041147552369,0.9567954382713952,0.839596726929744,0.5805266074982526,0.5775502445111153,0.6350402586118611,0.5750327342337118,0.6151903276241311,0.6107845200972664,0.5928024291176345,0.372886823069884,0.24633158255135468,0.2448158628169545,0.2056508107007199,0.370417439510994,0.60887645952976,0.8856064182883728,0.7455881635387567,0.8716745986883818,0.7476519526097596,0.613053468021604,0.3908324526788981,0.31609065957398574,0.5846835207890249,0.6051930283034106,0.6712784639720213,0.42345648064808444,0.41915818544742717,0.3297910692925779,0.19816167480755187,0.33876672314902245,0.5197091412783699,0.6102767270505802,0.8710231273792319,0.9929980149232865,0.7588588550120872,0.48335941751392336,0.437715886822013,0.29462135266178835,0.6115644506426159,0.6299166220778974,0.5480083655967927,0.4210616143504014,0.3580355024854552,0.2369318325903571,0.21881549103676878,0.2372815850244619,0.49003345950250965,0.5041688704432733,0.6133051435785375,0.7390948458682498,0.8175721064498764,0.636206143339432,0.5376973480072013,0.4318268517819458,0.5556385713573452,0.46527968094259914,0.5459311470133168,0.6534083394246517,0.4597354273742551,0.4166050883673009,0.2811422366704329,0.21571723931916148,0.16835677271484395,0.556756230561635,0.8527105178147067,0.8040357794812971,0.7528709786513494,0.7833661469982294,0.7371737622283773,0.46282589331061674,0.44813209130538967,0.5127551502032359,0.6575016530955322,0.6638833412004693,0.6420266337432626,0.4228497583742359,0.3586534737522276,0.15225461150860048,0.29394908072668513,0.4377883765587722,0.5771473627703261,0.6867966814902182,0.8175705203661162,1.0,0.6985296032424765,0.6870070261245889,0.5167792581640457,0.42918843718215477,0.3819422140300577,0.5905260272317036,0.6008620256994699,0.6992541746382314,0.32722782923738347,0.4829103788619934,0.23818415630127815,0.2840098421338321,0.3495075257923964,0.6378134391744952,0.8232686831714359,0.9360350564226745,0.7118180561211334,0.8042328139616639,0.5740074092478592,0.5210154529054544,0.45149616663207737,0.44779640808286686,0.5946296978433265,0.5961039581652006,0.36044391495517036,0.42220967575023205,0.32446520548844526,0.1397986589441878,0.20632599026365345,0.4566932271747822,1
0.432910393479614,0.6002910963571393,0.722047807654407,0.7589969660789104,0.9460614137577613,0.9927259764626317,0.9163715730950962,0.8966390693229365,0.7214064286617544,0.6705301887676207,0.5292233393884026,0.4438175085031733,0.1926162896463421,0.19180096608186453,0.15671954754202688,0.10000189251113928,0.12057938137597896,0.09794273056335756,0.07452161432920873,0.3389116057311621,0.44285865349493014,0.6039531007296588,0.6649114065046308,0.7891789298683485,0.9555593215527075,0.8328303213400979,0.9465223089167287,0.9575670064522268,0.8571451722826993,0.7618178367349612,0.5842217050444823,0.5837224206968369,0.44044098827887035,0.333036524902663,0.18223296174195808,0.10319977485770865,0.08544847025702929,0.1646651841316068,0.12676225669994945,0.27856975017720553,0.31448064874927606,0.40601487230050665,0.4818260956724576,0.7152150527921112,0.8280568536435441,0.8253762239552365,0.9810431747416642,0.8676504743838467,0.9248365013751203,0.8604979830719919,0.7780488155165415,0.5331763725922135,0.5348901152115201,0.35873537770753056,0.23829244767497465,0.19831575995691536,0.14603646737737197,0.0,0.04630507167271197,0.20501479910388665,0.26010557376386434,0.35756721209316306,0.4323280264924015,0.6193709212725391,0.7705740735582037,0.9158266422210273,0.8735349041663067,0.9611465434128031,1.0,0.8203397772292377,0.8829647933578847,0.7136713210108635,0.5883844000408587,0.4351618058224343,0.31981435995018814,0.19640880201358285,0.10560301040906667,0.1155247133337956,0.13147827636082565,0.06661803740698302,0.14374769300806717,0.27642993905321156,0.3329686011447782,0.5161397436239925,0.6202946203462151,0.6769425289597936,0.8584943717117983,0.8771682058908228,0.9704081084995385,0.9068744844673694,0.8358382673054556,0.7824244223081573,0.7289151334605212,0.6313765776003497,0.45147727897830103,0.28161413742903574,0.20600855479545271,0.1260482572780942,0.08361005294573587,0.07680606564386577,0.08245336519071739,0.2348344810066738,0.328863733743681,0.41180058497228483,0.5908708814653841,0.6867198118097511,0.7245010073891273,0.8423107789762048,0.9734126229650233,0.9125369425155387,0.8769210090305484,0.8786595867815523,0.7471947098973054,0.6704923559401401,0.5202824021313275,0.36171395935790834,0.24966439152837433,0.11200491206497809,0.07009632638684538,0.11224864552182895,0.14383757120537677,0.11198746604570892,0.15800918395327596,0.3687041525539323,0.4914554161418761,0.5999929835321394,0.6297586513032613,0.8173802952566985,0.8972044125868347,0.956724188410047,0.93231539715106,0.8632838929860396,0.8114612654682596,0.7824328321823102,0.6323593108809615,0.43466950047108377,0.4368595386437577,0.3014188907112195,0.2336573041322223,0.1533633874755797,0.04474130221133843,0.11465935480674488,0.1798758404783457,0.18333249084940423,0.3004233678083321,0.5052936839089238,0.6355690207423422,0.8190732950916707,0.80702309607073,0.8174620906850336,0.9177563252087062,0.9573186082539228,0.8661090454642024,0.8113362551947518,0.6781081385084504,0.6355730751781676,0.48944477086795934,0.30056383868840114,0.20582292443999378,0.11714590210565273,0.01807599153664141,0.05236828938162014,0.03601854353607625,0.21247985655888268,0.30835506028323345,0.3673911327071101,0.514475644678794,0.6768708880761378,0.7791380037376068,0.9231889351668382,0.9117899484947505,0.9884520174165221,0.9191382971542286,0.8608123828280445,0.8124673932094558,0.6998052442520016,0.5279988313838379,0.39167641020708227,0.30962640653220447,0.12487270174897969,0.11722381024853418,0.048495999674822876,0.06321970473814359,0.09033176989799596,0.2260692481814816,0.3113889522126734,0.4130577026313853,0.5215742268511581,0.7054414827866717,0.8096207185905966,0.8525763602435786,0.9681113649166402,0.9197574592082497,0.9148174459761624,0.8239426675570685,0.742426480273571,0.6203678456414353,0.5508224451782804,0.4112085892519427,0.23448835689073738,0
0.4545713947525488,0.8357556746786841,0.8424524541419718,0.8175423274802067,0.7748373611744795,0.5848732275551836,0.39768455545438613,0.516757060276828,0.35633851627557045,0.5605356734878846,0.4045236678757723,0.5098207039993663,0.3776343914014142,0.3796000110631574,0.0,0.1393608348197462,0.4352333521476563,0.6008191146184076,0.7629655131041188,0.7272435985286336,0.7123778678684167,0.7557365374159931,0.4934709382768802,0.4557607123684207,0.41604363395540567,0.3778581945793532,0.6361657602913908,0.5857682272341657,0.6632715879169006,0.20336303905763564,0.2578936392714632,0.02786361447988428,0.2645431849273924,0.5332165462111846,0.45122653397562734,0.7701819738473039,0.7583790965273633,0.6551942072623748,0.6147962774619192,0.5639029327154457,0.40035692945554474,0.46836024735300896,0.5287896774973502,0.5538108787729877,0.4057728156709277,0.49416039941580797,0.27275338746819394,0.1922785734507686,0.1001716942139873,0.2743600565195486,0.5097068798449064,0.571013350657968,0.6531261966097864,0.7299249263039214,0.7163648715401452,0.4608143193347386,0.33181546556891517,0.34187092542191294,0.43277700111321804,0.5059714716678387,0.7529408194899132,0.5687627580945513,0.4271467890107612,0.30934260463786245,0.05324321833579093,0.10447193602619315,0.2923832493528703,0.7369226407893605,0.7179785924421055,0.698443640002606,0.7057165228110208,0.5847112528768509,0.5018602774083482,0.4386677994740702,0.3580613929387795,0.5699582773136762,0.49110692590842625,0.5105286957292203,0.48232856958998754,0.21044237478685718,0.11071668024617382,0.21869096667939975,0.20043332087758053,0.44669495200771914,0.7374933828403234,1.0,0.8594076823414365,0.7401340117599917,0.6003321840534095,0.3390588085725984,0.4257125072874576,0.45920363622535904,0.5603773114596392,0.5630219645430956,0.526560905270846,0.32958642927182125,0.22550515134727578,0.032112055471819057,0.1661233058770898,0.4893479990116584,0.599246691072814,0.743799347066772,0.99891249357443,0.6390361521895443,0.5314779814773846,0.6615075246733397,0.4243864936047004,0.4039096798940621,0.3763229275183317,0.5898648817285258,0.5896950183761084,0.3394195491089774,0.28673322375803806,0.14758924747225205,0.17716517919941582,0.14295126522782714,0.5594514414688043,0.7358204288830318,0.755109806759507,0.7914098747824169,0.7090596906883853,0.5039744613152813,0.414925777857854,0.3873088959068435,0.6024090487376886,0.6080646026933019,0.6426620864856807,0.5447636282643069,0.2821624993311648,0.24068503649034861,0.2471033669055269,0.057143419899248094,0.37872912209980647,0.7477045054705731,0.8182687788742379,0.9485882001965289,0.8079404134029707,0.758788916700311,0.4546503361055175,0.5046571073675522,0.4817956852157253,0.503760114060232,0.66502110857829,0.49536396302679636,0.4504967338301086,0.3386326725506357,0.09997164094576166,0.16999240372545926,0.05717557106274784,0.49752843948313114,0.6142571018664384,0.7204834803485599,0.7381599472719228,0.7244246541882867,0.6729923164541483,0.5284651916885599,0.3475651671565864,0.35636036775940544,0.5672191961540197,0.48318677546582006,0.5311197578554568,0.42870270076001293,0.3012968476894708,0.24669327086490547,0.0420430695183866,0.1000977202525063,0.42929760051378524,0.85615068954938,0.99695987615814,0.9761587553031088,0.676735646314204,0.3800339855126883,0.21810961343311625,0.3562170271866818,0.4431728986317982,0.6536279421930011,0.6345807317925101,0.5120553131849833,0.2744977440760794,0.12841153438910624,0.1732638305131976,0.2629854519716846,0.39420086626522854,0.4703389037572815,0.8077661019073256,0.8588792930757401,0.6666738162084513,0.562446050692528,0.5639541545169207,0.3976727343633476,0.5783763607084424,0.5382744732941342,0.5008730654005744,0.5368648383570529,0.4497038438299339,0.23071710481636615,0.09262487950478832,0.21958937342750934,0.3300660900360053,0.4977156249725709,1
0.4568861933539547,0.6297739902398238,0.7555249546574315,0.83231260925869,0.8629925661523596,0.9579632252264791,0.9051293234582217,0.8584378754525255,0.7621711729337538,0.6317674925764123,0.5872217164342889,0.38653668532554925,0.36543416649771115,0.1583748944988097,0.13253760688619376,0.08189267214708068,0.0718556357889194,0.14063142664088302,0.21521291157805955,0.3028596632257128,0.3533327458835867,0.47501056881216486,0.5957839173021771,0.7463975940457707,0.9305294097327343,0.8930845871488063,1.0000000000000002,0.8890113674425935,0.8394602305821421,0.7691108025827886,0.6203748343894285,0.5178315311841646,0.3111272019325052,0.22952930288065337,0.10106544077325047,0.13602710691719982,0.017586571109196203,0.1411840954038283,0.1414271876435928,0.24456632680735924,0.281230275995596,0.38201635944381707,0.5411069901480509,0.7211282212035843,0.8692550159604284,0.8796778095320548,0.8476859580401681,0.8692885615123488,0.816802642273841,0.8078031885732044,0.7063829299849784,0.596546769237413,0.43151427710530266,0.30302421599093776,0.24467361885491332,0.17241588351273113,0.04472370581261259,0.09285260785260313,0.12941355073813482,0.045275434391854275,0.2943075982974188,0.36685504771627353,0.5008049314030515,0.5440502491374353,0.737489661338443,0.840606037179831,0.8454853942232621,0.9409792958768186,0.9000714258826834,0.8399469280328283,0.7836168842782429,0.6976769600537598,0.558648090602865,0.4116699863808989,0.3392410465759249,0.23954698153676673,0.14064285262399395,0.017677941406445852,0.049055708748235505,0.06432364447058708,0.23424278185499975,0.2585519646939726,0.35556612904358015,0.46898206404328724,0.6122823871195898,0.7627644667438747,0.7464546387971094,0.8947636534217578,0.8900935337533096,0.9173727297218844,0.8838491156705011,0.7396009050051693,0.6046461807127997,0.5271855912811347,0.46749436516861886,0.3292820886235851,0.17714237416695333,0.0923574802470215,0.05550936666696554,0.022142652565669163,0.14494620109010714,0.2226648157285228,0.2641339745578375,0.37696008521410435,0.49485501042801705,0.6285524982492915,0.7257956255553185,0.8352761195389965,0.9281381668101141,0.9405310744456667,0.8552282348909651,0.8391171243164861,0.7712242906814434,0.593157878570526,0.514229059395105,0.43347915642959733,0.25655544814518216,0.08696598851141696,0.0,0.08782025961683404,0.08643061654048062,0.1343672346547069,0.22484389229854024,0.24629300478738592,0.39530077186362717,0.5734428078044349,0.7073546334550305,0.7697482531449582,0.7982645750512506,0.9171424680005765,0.912206503201698,0.8348450904657017,0.7300052752675987,0.7419784524842925,0.5763746447208397,0.48437839528273274,0.35853316969428023,0.19260972837532175,0.16962413045830643,0.058360204219155,0.01024565148443779,0.021587301664478864,0.14291950020630428,0.2950803661700556,0.33911732179583787,0.5355002131287141,0.6476584864400321,0.7261264942396902,0.8688149853930133,0.9341258995620201,0.9577105301134706,0.8268166261385638,0.8559206192419702,0.7627564387236263,0.7397485258883523,0.5584531215886901,0.5183991184109572,0.3270166709090443,0.21489068834976283,0.1186321102669301,0.07779218521650338,0.08485460330507805,0.09696254736827647,0.14211819848363066,0.23658941419750373,0.44371703260199613,0.5762202316612566,0.5977695529693154,0.7668521083511799,0.788494217164621,0.8713967856066851,0.8656391192390114,0.9420891425338214,0.8706520183216532,0.7971153067978685,0.6993504183883172,0.5034741016945313,0.39988980012468267,0.3129031046078156,0.17848716506093687,0.121902556334683,0.045425322417651126,0.13236469168580417,0.15139655475231484,0.23397757547231668,0.308026268325455,0.3520745738459957,0.5040318066098314,0.6180072247909115,0.7458442826474359,0.8861621610493371,0.8333627041074487,0.8873783561988744,0.873863374381275,0.777623230034302,0.7527071151671831,0.6182369761624884,0.5549389735375221,0.37102276967006753,0.2860823996331885,0
0.34812515071647165,0.4906786404434089,0.6603220371539168,0.803652653089374,0.8743663803136947,0.9342670575329752,0.8494662543261705,0.8576415183518433,0.8020015607139521,0.6465306890804597,0.5058311046103384,0.3571111417591988,0.3209540458346546,0.10637110437733421,0.15787496916450783,0.04671943825872449,0.0,0.11859784328530448,0.1768160333366991,0.2747928597758287,0.40936714181928,0.5167110889142716,0.6575776110994309,0.8101510148499318,0.848090697899351,0.9303287101980624,0.8162361897971988,0.9038495820530998,0.939722508905162,0.6601379457621582,0.7092670267230268,0.5245995640056071,0.288853839524548,0.24439951730118908,0.16134849763138165,0.11500535222629171,0.02439924819024092,0.08111136732454577,0.1573152352857594,0.21636157676789336,0.33767775123451027,0.39168105784999996,0.5722296947080583,0.7678554672708379,0.7286897753479873,0.8748348385209073,0.854129505510131,0.9647438946637852,0.7920805403715503,0.784907966473311,0.811262761617544,0.5692031603014311,0.4576058974945373,0.38555223712933967,0.2095158837891955,0.035103518723174465,0.017148262731826958,0.09886261194889889,0.12288395878916164,0.026819340241748535,0.1612239890603906,0.2865985092504862,0.42723830842608806,0.5343158583527563,0.7013876823324756,0.7738330634158382,0.8528200357028368,0.8589417047022965,0.9398898209035786,0.8038582133676122,0.8040810473915727,0.7260822218028343,0.6453052519866808,0.44919751564412413,0.31052161273490153,0.11637247551713631,0.1694512508447808,0.060734863497795444,0.05557120766769841,0.08645865034885081,0.13843703148430914,0.2292612737058881,0.3310497144191884,0.5083846090873921,0.5412392930252153,0.6583123227890134,0.7831307319651721,0.9385885065723343,0.930752295340083,0.8713326795171203,0.8132814106467102,0.7600559251726683,0.6702233689348941,0.585307113736932,0.484204360939368,0.265586883335902,0.2618750974595883,0.09269291078147979,0.06086386313365716,0.0878263171142673,0.1309223130836938,0.22327705409494536,0.20072304273659158,0.38403858058225004,0.5642998267711123,0.5911110596249101,0.6694183385138145,0.7745749226723719,0.8893489729302752,1.0,0.8240634915000415,0.7791435238804298,0.7160108873175429,0.5789394266426412,0.44208399334798154,0.27398912424320504,0.21964443794814204,0.22917348294273038,0.0994847056413461,0.09455836399900647,0.02447175145592606,0.06033162703967321,0.20046955665764554,0.28938617980975,0.4086582624090382,0.6154129403282544,0.6326867764898422,0.7346329237256852,0.8935350738606499,0.9338849542054096,0.8646705376526388,0.8815798496200096,0.7315544357129565,0.723807391413513,0.5703488047458686,0.44955794375538627,0.2816644054390087,0.26756310612968376,0.13499903933830043,0.10699596133647477,0.03691553882322529,0.11061925022578534,0.03288035266259576,0.20281187718505483,0.3678933327047892,0.35757184173017054,0.580380802867008,0.7219018739317928,0.7820418884867465,0.9147713722932407,0.9519918667454106,0.8788599219594286,0.8474073624612848,0.7369004933973382,0.6962335916572225,0.5674484322946929,0.4275111946289458,0.30505677650852897,0.15264246131990006,0.04313499233657553,0.07384923764496337,0.033478874703984585,0.024357361468089478,0.10190056077049214,0.26890455233433264,0.38442231931498544,0.505596473908101,0.6047551196113635,0.6948637994548802,0.877572506255824,0.8701493576469354,0.9231481624948139,0.8619337512567697,0.8377621365081707,0.6474322053347945,0.6254265549971274,0.4597359369289687,0.4042960623419733,0.2451320865932049,0.15287823793162741,0.18196749393268769,0.0032377940891585855,0.05052443505394061,0.09154752410036554,0.113345882487002,0.304733645651886,0.45038849313860324,0.5618772738577208,0.5960818998201417,0.7203172830305044,0.7510381788295883,0.8867359977096974,0.9071965861266609,0.9236647887303369,0.9066584360418666,0.6831213275639559,0.6282104676755393,0.48337541109195226,0.3561476226658262,0.31073709676795325,0
0.6131670267371625,0.6794839881463233,0.9476257056551523,0.7957181907506149,0.7383473772048066,0.7869731235082578,0.47456136538647703,0.42755068575762933,0.497860457277219,0.5216006443653126,0.478370735247959,0.7165355572374813,0.33752990696994334,0.08314140023682559,0.144600428963233,0.24435873140502595,0.35465058883784517,0.5898956436919076,0.76174796746518,0.8949931689290437,0.8823720956824233,0.6464196627823728,0.7771290402833724,0.5432019771195948,0.4472467282361705,0.383526760603753,0.5835461407498451,0.6428347667491681,0.5460668133834273,0.13359896470078714,0.20288169162356223,0.11638279396267315,0.4116883710061463,0.47364675241391296,0.45194000824188535,0.8597196311011815,0.654170508823455,0.7977302678884397,0.8594560224151184,0.6131880732577659,0.4588545586273982,0.4052851497861588,0.6675916051656238,0.6416424736461249,0.506917167357435,0.3548429790763368,0.16947162262720605,0.2026961987023333,0.14774545462706024,0.35154673507480494,0.6423098791795849,0.7046668253800894,0.9120874312888609,0.9413097616032642,0.7348793031619623,0.6162176215559921,0.4894050136221065,0.44157248609517297,0.5812413897807204,0.7231893168976737,0.6560490760212392,0.4714557667274129,0.3303202798700432,0.197825341780198,0.2526776398741055,0.18241976644567276,0.3164959294041828,0.6833496275083007,0.8052205827882055,0.9984289886370277,0.556332219447855,0.6551587327459134,0.45899651454521284,0.51502444732546,0.43044835537908227,0.47136551341218147,0.6695234391647892,0.675846091546016,0.4276906165845877,0.27906476083367693,0.3017110525951432,0.2879870938374196,0.39947863103368375,0.46639637547687973,0.6495523246650995,1.0000000000000002,0.8960020497826625,0.6522961615304285,0.5644259822470955,0.47093638432278156,0.42461293747482065,0.4552280909122975,0.6755616590457404,0.6292649025951017,0.7356877000628314,0.5043985208895071,0.2467629279081855,0.29971179276978793,0.24395956690580056,0.6136855681044163,0.5636379652058475,0.822603164481872,0.7937656564686832,0.7640011336611071,0.631729300556439,0.6436298904395649,0.4610494260008222,0.20523572126192047,0.5228144359586216,0.47621129599074974,0.5190865703849178,0.5785263703736204,0.18382619482250573,0.07035851300747503,0.0,0.22579121498186422,0.29478578963472984,0.5188658818726515,0.8007209857062831,0.8774492371867222,0.6634586038107462,0.6398761566482344,0.48992126312886236,0.48660413093161636,0.367683808802308,0.7376045260876087,0.46653450463829443,0.4715482436622918,0.45878239585614883,0.2705320505308249,0.24927704248448562,0.15828497288525306,0.21397998568666787,0.400365023175806,0.923775892491579,0.8185684463049973,0.8042285471107891,0.8735867127567555,0.4986733573012602,0.4520801911481098,0.3381186744609216,0.3692217275316081,0.7508637818566793,0.7594862958979036,0.5912692813822156,0.4442460817540248,0.2850642109103745,0.08630055221878441,0.2630048210817938,0.3678466137171609,0.38164452785052794,0.9134895269510039,0.9070234154232526,0.6489961630950013,0.5990949683945511,0.6026069720553909,0.44811369031790466,0.29050051489357753,0.40851883685569146,0.7604099396082946,0.556184382445635,0.5417369112355558,0.46813998472686247,0.13112096885379776,0.20840596629942698,0.10375214475269845,0.44624157952437854,0.7712945018004733,0.8196157660441167,0.8804337851587989,0.8171571920839809,0.630180587976896,0.49518687993699445,0.4538600499875844,0.4280088647450797,0.4630629829823267,0.7108602013931897,0.5915859524959539,0.2997691127057136,0.23963936929627122,0.022634493840066272,0.16201802611540744,0.42798865966706623,0.6203699945722579,0.7893350788633777,0.7658593866938198,0.6944223320371912,0.7591098798946011,0.6887444694870934,0.49477693886821045,0.4307893719047087,0.6344122309882232,0.4892046810739455,0.6664269376415106,0.40617981026454714,0.2623369116769976,0.15867625351537445,0.1538058070883444,0.35425495389897227,0.3327889875481074,1
0.5382651957233575,0.6476057994871031,0.7228890621236834,0.8198967327967557,0.8025967212030635,0.9577804458840944,0.8807356039739491,0.8284660220111809,0.7400653994072591,0.6751839580949005,0.48532800563348516,0.36415917669153264,0.28345190670241116,0.157324171055172,0.12346006633912154,0.044126722315885214,0.1339683692978062,0.1315736535835328,0.2015506783150119,0.24618790933235576,0.4916501754259318,0.4985389506069265,0.6110280574180929,0.7809013901048765,0.845002618439435,0.8559100102485924,1.0,0.9268902554436348,0.8278318445330145,0.8398400233359014,0.6604410130033339,0.5006178486522898,0.4709053614539448,0.2859208979289717,0.18825213558406884,0.07951924698569546,0.06689844205687467,0.054699030205179355,0.1776440402019001,0.12723034366521535,0.3575641378196941,0.3844187939978789,0.546378356556305,0.6579268134301675,0.753140985465744,0.8825543134135914,0.8980274315441261,0.8772821634939936,0.8809562177001378,0.7786204065245168,0.6894826227728216,0.5324898613316644,0.45015256404260845,0.3649438389410851,0.23339289236198718,0.21925865940999584,0.19490560717638206,0.04339860623165759,0.04463770224038416,0.18122920659187208,0.23337765522468856,0.37707814422978175,0.47005038668757104,0.5720020169953169,0.6905885870187185,0.8157561953521386,0.8590776720208269,0.9551527776067751,0.8462655739212144,0.9122435201041874,0.7074103590795248,0.6907427124442564,0.550595661093494,0.3732786546868372,0.22740646229746758,0.16066529424734904,0.12686172673168478,0.050211951979994396,0.01965262536342649,0.14702235498366517,0.1001854559213598,0.27346285421290123,0.32170267550205306,0.43773583530629634,0.5855526907363308,0.7516707224607686,0.7601691209182715,0.8924963721264024,0.8661171090841748,0.8616829601015921,0.862268860806382,0.85505002939097,0.617436354958611,0.5633784245077423,0.39250955790914815,0.2656250159616794,0.22901240430174735,0.07369064935972175,0.020304075596895454,0.08605232433857513,0.1696294253670143,0.20446857504632238,0.21232354051912222,0.36409706632410893,0.5584354283946021,0.7079241222775305,0.7607179679765099,0.8123058965187945,0.9599619666571404,0.9041375183302828,0.8601200908701873,0.7949435542545298,0.6880043937429985,0.745847626452222,0.5611159717574739,0.3468685722256517,0.33121836686625916,0.18479233692214814,0.11584937892720076,0.03450023585118872,0.050331835238720424,0.11506433404827626,0.1121936285826679,0.2793398914298518,0.4216514852142451,0.6041143721748786,0.6443595788284685,0.8093929194336915,0.7664321588786616,0.9475208436969385,0.8674592978224074,0.8799546044311476,0.825167166671344,0.721062758905805,0.5911988071312314,0.4167462333080646,0.3065193799510798,0.27389672503702894,0.11740064189928257,0.08022596207999216,0.0,0.11607267873169336,0.0778149523333333,0.2578982572531564,0.2842495099700306,0.49604549529073966,0.5806385531810094,0.6749634033438877,0.8650556223900473,0.8650841231857993,0.8883866045250037,0.9396375681812741,0.7984721675217513,0.6798071187790133,0.7335084040166975,0.5292626159357956,0.4738082424014552,0.31633360709705804,0.1578585974722011,0.1505735047079344,0.05831915877972921,0.01811610727202473,0.045538579195718465,0.07904685441194104,0.26180568703128937,0.31974341833881326,0.4836768773625782,0.6033752655182602,0.685742267386939,0.7537752808691323,0.9873377079040778,0.9046331502492904,0.9716352964381383,0.8945389097736385,0.7497210702175645,0.6635419707340554,0.5393978315514465,0.483578677206564,0.3207068334190052,0.1496921524373988,0.12415188443360992,0.10299274610608677,0.016998509696594333,0.12315847029916799,0.22961151558857396,0.23552640171912587,0.35970659264025656,0.566072296177333,0.626209978642627,0.7095989951961941,0.8740110081893483,0.914819730618972,0.9112725032165245,0.9331806167360799,0.8781448084822849,0.7349634764381869,0.7095682278633637,0.5679741745421818,0.2907975789814499,0.21460367692182492,0
