0,1,2,3,4,5,6,7,8,9,10,11,12,13,14,15,16,17,18,19,20,21,22,23,24,25,26,27,28,29,30,31,32,33,34,35,36,37,38,39,40,41,42,43,44,45,46,47,48,49,50,51,52,53,54,55,56,57,58,59,60,61,62,63,64,65,66,67,68,69,70,71,72,73,74,75,76,77,78,79,80,81,82,83,84,85,86,87,88,89,90,91,92,93,94,95,96,97,98,99,100,101,102,103,104,105,106,107,108,109,110,111,112,113,114,115,116,117,118,119,120,121,122,123,124,125,126,127,128,129,130,131,132,133,134,135,136,137,138,139,140,141,142,143,144,145,146,147,148,149,150,151,152,153,154,155,156,157,158,159,160,161,162,163,164,165,166,167,168,169,170,171,172,173,174,175,176,177,178,179,180,181,182,183,184,185,186,187,188,189,190,191,192,193,194,195,196,197,198,199,200,201,202,203,204,205,206,207,208,209,210,211,212,213,214,215,216,217,218,219,220,221,222,223,224,225,226,227,228,229,230,231,232,233,234,235,236,237,238,239,240,241,242,243,244,245,246,247,248,249,Label
-0.5559400590234602,1.2157342344989495,1.8246606461425212,2.1767003632144206,0.8212572994184643,0.08613899248284723,-0.5065283288707954,-0.8223834235576424,-1.4181227692682254,0.7187736220942256,0.7682327069708909,-0.7249264619578103,-0.8654481992016266,-1.7540426991010363,-2.1065120770550783,-2.5751173010604593,-0.9786425269565879,0.7478824416643428,2.657462008737671,1.9555322140806934,1.5588287568542754,0.5496835793936976,-0.22121717589415096,0.14123488063317635,-0.15018934989979035,-0.2799926009705323,-0.17544778585385506,0.2051771167838401,-0.475116892271719,-0.9647433771121302,-1.7095227098320436,-1.540610267260319,-1.8598369844634575,0.3195430891330061,2.2566166670309507,2.2050395251150015,1.8347180889164019,1.6939827794270477,-0.007094858301698093,-0.9291011130704651,0.017841486521870342,-0.4504777994036032,-0.4919320801085493,-0.0712869111285826,-0.42782214603875846,-0.43023337181684246,-0.9620408625962206,-1.2815247010927902,-1.161053497919463,-0.48996124763236576,0.12287009799354923,0.9155387300096536,0.9812080791146386,2.144620970808477,0.8731133853167492,0.0031008360073274677,0.30380336236775085,-0.7844322812117828,0.3796104404484273,0.4439870426953661,-0.18642990836759643,-0.11681162167289272,-0.32091964356202446,-1.099921442294963,-1.010698576699157,-1.2086273672221186,1.2371259186052992,0.20370964396077124,1.305987778014737,1.7244081324640026,0.6734640512457519,1.1726709757832188,0.4147547084628015,-0.35051000096415214,-0.5107970077325252,-0.6356786724857393,-0.034287159664870004,0.5926938878793383,-0.4548046069277253,-1.3251307634500722,-1.4207185550487524,-1.1060466735764383,-0.9277247071261194,0.1572564479315822,1.7422142089291501,1.7729166470198665,1.5167984475888685,1.448259117817203,0.22040880472564625,-0.40475110806010656,0.27652480538568736,-0.25782459833423427,-1.0839992428859642,0.5327691384396124,-0.16074668894001837,-0.7959935953484742,-1.1563711172746947,-1.8378706303769077,-1.397837557974964,-1.6750625130923236,-0.02250619602558057,2.079697362548421,1.7491403008850732,0.6609668632478258,0.2711354932220944,-0.4173833405427855,-0.28131118861531,-0.5120109908048867,-0.2918038820514616,0.3372969636996455,0.5249318596993648,-0.3378068127199185,-1.2493340497587715,-1.8055465930859975,-1.5653742417950576,-1.2309675024744253,0.1571953763073689,0.2925638575075572,1.2205516099953693,2.1119693588340986,0.8521883382779041,1.1894556725971974,0.5651486466370762,0.32715415485098087,-0.6217273778370137,0.21985444286441158,0.12229248079330737,0.5990353104729986,0.3558546637083944,-0.8163075521350421,-1.7208267580193994,-1.7909893113901254,-0.5429167799401744,-0.3849837252918524,1.4954454436931637,1.2779392582577391,1.9050715908969358,0.8815107575205332,0.01416029086218551,-0.728810996897023,-0.5137008243680428,0.24027363010019456,0.8176366559902111,0.5957091105574897,0.6030335130497488,0.46217994769475057,-1.6599646531573788,-1.8613490616886454,-2.0977387170606665,0.1463414198487794,1.313603453626729,1.071733894997559,2.0636605989569468,1.991374679031522,0.7645693018629481,0.3866891794382066,-0.2725936604994893,-0.852016227075393,0.6365219590818467,1.0228948354411904,0.5880887784337524,-0.825972527052613,-1.4872860787621864,-2.236656747371413,-1.3001513200770565,-0.4220883809523197,0.212243122028218,1.5265509346352635,1.2513194550527678,1.7443736470253128,0.4267608380720832,-0.03716647867470352,0.21849852810172316,-0.4801392587809941,0.4928427224218984,0.5125687827417784,1.7272212460260985,0.0838942519260932,-1.3546278007042898,-1.40010410858884,-2.2363479892344365,-1.0167169726158065,-0.642915014259448,0.3803862996590978,1.3156517987779288,2.128586112114762,1.2714880580706245,1.1959263078917297,0.6016953333319817,-0.5035558861928299,-0.7587296601366241,-0.21869538965102772,0.6903829316659205,0.3322942457581561,0.10674497895001989,-0.08051070980044084,-1.479320621443496,-2.1397531695835603,-0.6985656730709382,-0.20077261330604015,1.3036837250849782,2.141318935022709,1.2458948826760816,1.9441045620387118,0.9500087931091261,-0.43940619254428054,-0.21678416195954442,-0.05280322308207053,0.19337287580504328,0.804965716301167,0.8561321704687959,-0.4937946267605323,-0.5876615959666994,-1.2312976256374077,-1.492071583885636,-0.7793696852285515,-0.3498296427842313,0.4768932308985413,1.8177961229430497,1.1668330240013938,0.942161374932272,-0.05903888057454981,-1.1803030624728459,-0.15667604051563241,-0.24505317186172793,0.335805706801293,-0.11407510692445882,-0.24631837285616864,-0.02721133987348834,-1.4334436742074,-1.4836275306095603,-2.013153896656803,0.745495770488187,1.5856119256546894,2.187024718498197,2.1692231650038134,1.3904109196713894,0.872462175546879,0.4869983351473752,-0.6742950402330778,-0.46583815300537124,-0.7227179166238464,-0.025567534194288033,1.0514891112978009,-0.5158474416470843,-1.2706198196854976,-1.5125592045925935,-2.4912536536297036,-0.5835922971105068,0.6332034276864051,1
1.0610780985063166,1.5725157724298313,0.9254550170654456,1.4293256843780315,1.7451519410235332,-0.00511083673746926,0.0010714680793896258,0.0269750220305785,-0.5753134987104662,0.21382610286487402,-1.2606235035393092,-0.47518228381702476,-0.7777092428100896,-2.0067308715238745,-0.9386345242355569,-2.220377662002656,-0.8839272898429544,0.5143924968510845,2.0983546377518323,1.0404846275511732,2.0793010503204155,0.8125179409497179,-0.4118445763651706,-0.10143329275850768,-0.19617650274414644,-0.26232116941260997,0.37022935397895335,0.09339801155172048,-0.15153381772485158,-0.6309141086915437,-0.8017890748433893,-2.354192473301805,-0.160760740174003,-1.2024969428070804,0.7915675987369388,1.9023782662161308,1.8658948647569868,0.9417525000424455,0.3933866879522181,-0.38395447363143775,-0.6636911003670763,0.24339407993838894,0.3599147115546475,0.022553924264643588,0.5872539440186504,-0.3437980526925487,-0.8466712005332602,-1.4105845099276628,-2.02271716843488,-1.1475506663532185,0.6000998456074673,1.5324625602188662,1.724833926906306,1.653461174570458,1.6008118938462892,-0.08749320406743727,-0.012506119397580617,-0.43642463770089074,-0.146627870780397,0.8450947765244758,0.7451932043841596,0.32784506884151926,-0.15466200686275366,-1.4872172534265544,-1.4174392174934118,-1.5328513715155063,-0.2869390319638161,0.5988335193106169,1.5538049555186968,2.0524186889198326,0.973728938924717,1.6976188049562384,-0.5400202275999707,-0.9671044728890931,0.3354666558542612,0.5076796099028966,0.6724019132101676,0.5350110006258648,-0.35484728249536934,-1.5603235521731267,-1.6335404417142918,-2.023720855798508,-0.5687232754453835,-0.073528690751073,0.643534543758006,1.5244470792159535,1.8779084479489694,0.8298340900282282,-0.06238630171129228,-0.09899464024776977,-0.23785871912972922,-0.36531985060698907,0.00806962808660941,0.4760351351740474,-0.6870306338985338,-1.3551570543017808,-1.7420613911676672,-1.8615637520572985,-1.349853190223339,0.07377306198031996,0.8778520198090602,1.2977487282370603,1.7489075991895489,0.996454491924033,0.7981448424437282,-0.06541957030125939,-0.17112574972109865,-0.7093218223070415,0.29746052628736347,1.101697767985233,0.23167473575417255,-0.007436629301002529,-0.6169074500965155,-1.7954077188589739,-1.6232384829831712,-1.2209812271112412,-0.1776149937714172,0.4809552543270032,1.6204747501033125,1.9743980765121991,1.978674063850272,0.9770832261734617,0.9391372224537604,-0.7526825033389953,0.25475334978820996,0.27307797144130175,1.4639101885038068,-0.26669513637555353,-0.9173087342212246,-1.5527985826747428,-2.787346793044372,-1.8710971738142346,-1.2470264770315764,0.3016499362839048,1.3981554153907108,2.673370143496321,2.0700094020090933,0.6735276181208634,-0.2409148453236864,-0.04009522422934583,-0.9954449149942668,0.8779421137603888,0.8854264108915257,0.09789720383778933,-0.9354770137042425,-0.13046522335720923,-1.554989096869241,-1.139507547154162,-2.1749318226159513,-0.748709719684927,0.6665268963535768,1.5287972699047065,1.5298074404617525,1.6942642467152162,0.11761495242221354,-0.10820127936075957,-0.2998623506392756,0.013630636133600937,0.4676557019658588,-0.20197904123484478,-0.5462188393740816,0.29011451487735174,-0.9455393604404263,-2.045685989089425,-0.9095640122811918,-0.9984458250078413,0.5896485920319059,1.090042382859313,2.7155139624834486,2.5491131420327604,0.9872142921906948,0.8345093715491034,0.10184972879884907,0.323973774082085,-0.5943099932114708,0.5866145108950003,0.8892224099200217,-0.8423582063614373,-1.2430544234464027,-2.402455369421486,-1.8895435934236522,-1.1465358451243621,0.08727347955355458,0.48606959841789343,2.1920257660044045,1.0683649740334467,0.6460279545653819,0.7796275609916163,0.27094247362847684,-0.34883240393718584,-1.3294274005508235,-0.006772750589611014,-0.316906438768483,0.6208910843976267,-0.024993367302059782,-1.4319193391157325,-1.8517309415844092,-2.2648914848328556,-1.2586169761387123,0.2511181172047613,0.3745971230869799,1.860242920732762,1.4602701217032505,0.8566658438215683,0.44393263315356757,-0.6550751675117032,-0.6458333745685617,-0.7803459148665481,1.1637695350303194,0.3866404978808349,-0.2124087476942605,-0.3904578577637374,-1.309266284798157,-1.835883730656075,-1.301136312952126,-0.4887062912310597,-0.0387975307594875,0.9393683071797883,1.5977588753125584,0.4438369005482854,0.2043839148528055,0.8917296240727445,0.5364290467680441,-0.45984633126213853,0.250491212361101,0.4513314278026538,1.8719254341177716,0.4808777065584866,-0.8713602061803112,-1.9754893945431533,-2.56163886326968,-1.2759861752851713,-0.8271975808501959,-0.04722180830441425,1.1820205309010814,1.2140661743941785,2.2264100980777397,1.0922450455882386,-0.04099785750840952,0.37996190294978827,-0.20490462707197074,-0.3187938377427123,1.1219040433189182,0.49029326783605304,-0.8673469732351287,-1.20686570547201,-2.1092518475035313,-2.3765398655246104,-0.5931943683884697,0.9547083202350329,1
0.013845465808106396,1.1199658814228357,1.5044285803289636,1.5521960371191281,0.8826414150145335,0.03572743094472097,-0.4117933571781054,-0.5670676240929398,-0.5261401484307924,-0.028995818770147896,-0.8913695943358805,0.3793326376277044,-0.4562985326219383,-1.4252936967893661,-1.636177983821503,-1.3685182714530255,-1.025905944796612,0.18273205709783646,1.6418762980339627,1.862167445720461,2.519379419084088,1.6172074881585798,0.5454158193529798,-0.7133524877540527,-0.577984852165669,-0.46323609264757976,0.4752069863772984,-1.0844226122472502,-0.4376021288219751,-1.1153376456129758,-2.3569427495010613,-1.3364165665990633,-1.7968482917970776,-0.09258171019419881,2.2593488579992558,0.8027168579962319,1.6511232283859458,1.0493721911351097,0.19646347368266343,0.24267154101565885,0.18415583051925077,0.20441210607854474,-0.18026257265349313,1.5859327610961789,-0.7476675878689211,-1.0137623476480009,-1.1682376177575533,-1.680701971316644,-1.3641976232844693,-0.07739309871713285,0.1665275833630369,1.284142157608624,1.4380266975262552,1.888961742146388,0.802740190626907,0.04876397981730618,-0.014313233500710787,0.1821321520563558,-1.1418405450037254,0.4760955628675949,0.19738337055137548,0.39489871967190454,-0.9324627109771738,-0.847192957661784,-2.096622213382913,-2.492882947031723,0.07677431212779595,0.24213256537172378,0.7151810046505741,1.7628668855233411,1.263249947526369,1.0629776549860117,0.40919387305748595,-0.31219994355053077,-0.6859967518547652,0.2553188935335776,0.4429391947443785,0.5053065832285457,-0.7861272529442629,-1.3118828030139873,-1.416753662643102,-1.06147647242659,-0.573322138174464,0.0410274355763952,0.8125856301936879,1.887050279382103,1.125747502164422,0.7031956467997684,1.103609552301735,-0.01982100597026487,-0.5341053715705681,0.30272107937121007,0.8870762628205677,0.1376913873724091,-0.17669243437460946,-0.927748053787006,-0.9009141211837686,-1.268061452441313,-0.8123553123767919,-0.15960357157003802,-0.3670868315062088,1.5182001536778735,1.2292230017173673,1.2412619867572297,0.8926985122303548,0.4966924483337617,-0.7779067011156822,-1.4580661812570808,0.12805269006949305,1.6571141031832193,0.1846317001475251,-0.18483477287534392,-0.07089763668403237,-1.2996601733851618,-1.6268542053969104,-1.0062190948454024,-0.10133107675900882,0.29758293217638343,0.9374970840739925,2.6688129869515924,1.34504393590533,0.5474955344207074,-0.1825678383301226,0.02152791191325576,1.087938582296614,0.4433833021260227,0.0749653087376943,0.07075357735625018,0.03805042047179091,-1.5445025606592306,-1.299275686374334,-2.7685883499629194,-0.982399931977921,0.5405230497861357,1.8623402007899887,1.326047615367182,0.8434149741007665,0.8316118635061553,-0.35441701352295185,-0.3605731433473636,-0.3386550387995644,-0.6973597917677605,0.6979259055863147,0.2538780832079162,0.4613201853438711,-1.7298540305879624,-2.0063152595156275,-1.5000810488168315,-1.7772732786314003,-0.5312900372328888,0.6642546052730726,1.5844349634990194,1.4160570698345207,1.4574825622777057,0.26015331449627066,0.3001286975232748,-0.4174321762367367,-0.1660704690980142,1.3968116827665809,-0.1932102226159209,0.9151293805138736,-1.6783995745965892,-2.1508846938896937,-2.2917627596549335,-2.2739041826799213,-0.9544322430848459,0.14492113208422658,0.9288725079680764,1.6102010166612242,1.9353251012769885,1.5283083052406023,-0.3145456119829537,-0.4017837316102265,-0.39513691614059443,0.13080973535880802,-0.14274479024095488,0.3153995786983927,0.052003354113698726,-1.0036602188432802,-1.7469968555153788,-1.705467287382706,-1.5704795460159473,-0.41366628678414336,-0.0776071521144922,1.202377229279365,1.6438076773640964,1.9046511283047618,0.3371945231559746,0.19623575173636637,-0.20610727612119595,0.5274922708091015,-0.4657574129863473,0.006711652425196668,-0.18262303112905293,-1.043182076384684,-0.07963597882069562,-2.2155480983906237,-2.143437428415803,-0.5693941733610465,-1.1030065665149655,1.2456359308984424,0.9017074903029512,2.3487462991542647,0.16816341643231114,-0.3792868949944849,-0.40991512378147055,0.11690262319139705,-0.19688609389041062,0.013549432128839384,1.0420308256273292,1.2150737755185688,-0.1613191709239623,-1.564529511503384,-1.9344704478940995,-2.252443352852501,-0.8170514351276862,-0.5883434499423874,1.5032092551568788,2.738071746708357,1.9535932728126029,0.7274055858546143,0.47176119666637734,0.5242119126003408,0.44991900614662006,-0.5396662149484676,0.5508545453220474,0.2534342848550534,0.32438687479804157,-0.6155944335315424,-2.6825798789851643,-1.9324222462893135,-1.278438811770637,-1.166204691787467,0.9544160514274156,0.7432993521588296,1.3556206524928494,2.0534952403915248,0.20953627268137903,0.24997194275073692,-1.2367970254495682,0.7970685474867909,-0.04042855632220921,0.40800240815794914,0.31035664426820625,-0.044940463906221195,-1.8712863579232946,-1.6741109562294845,-2.0145244129331203,-1.9010617551934255,0.49356110006432274,1
-0.00349884904969617,0.47527797461021637,0.5065655294292892,0.9697731773300586,1.0068199313598203,0.9421420112395245,1.0331281555160794,0.9503896484899498,0.7209337413235137,0.2474076676068316,0.040593960018783154,-0.21287672592378418,-0.4798829113896753,-0.651698902932071,-0.8723756402840712,-1.1190637744819092,-0.9532179898913411,-0.8456930536656002,-0.6837794062867172,-0.39737519330111903,-0.14176372506780394,0.12154675380730016,0.36251525979489213,0.4637144286766707,0.8757433950770191,0.9807450366602339,1.026978806389275,0.8210151399385861,0.7031303371777662,0.7052813867819862,0.33014865611172595,0.10599154645493444,-0.2590326473477591,-0.5347672923494362,-0.670862712019575,-0.9736630758593505,-0.9859141951144605,-1.024636669816077,-0.9157143501054258,-0.7176685235603668,-0.41653572880839446,-0.1986991593277221,0.2763999097187255,0.3492883757498145,0.6680641467973649,0.8282916215347753,1.1231069293809453,1.0151817504597165,1.0252430569844777,0.6161350553134783,0.5644479328859374,0.3508275645231516,-0.02961307779012683,-0.22755613399085378,-0.6516949464587294,-0.6703012472000339,-0.7188001851586912,-1.0361047787137037,-1.0045265200840001,-0.687443125451991,-0.4718533074552028,-0.42181783365608705,-0.11764742759404584,0.19697747963664006,0.37100821475315027,0.647893256431399,0.8063375515187745,0.9144580184815245,0.9820608498722209,0.9135672136310499,0.8688161619685484,0.372604164405794,0.2865571022162944,-0.13470656202382214,-0.4093765105611217,-0.5912707958851345,-0.9654064056835057,-0.9316464069921218,-0.981743468007646,-0.8867996114134596,-0.7596114571395849,-0.32373222121697753,-0.3619719094717981,-0.053099695500182745,0.23588385840418816,0.5137145232920369,0.7247896087997137,1.0549463909250276,1.1404391136279368,0.9128127522355796,0.7698986462168558,0.7058943007404369,0.3492078351677863,0.1766008593768243,-0.1678325602835006,-0.6240139799793915,-0.5590155925541306,-0.7105579730678431,-1.0468082076593375,-1.0300079309855357,-0.8781650891214917,-0.7063127720811199,-0.4395988385892997,-0.02413548664606116,0.05793402313504968,0.28970210648690636,0.4918785992268171,0.7596885691695661,0.9566635706565406,1.1792767090215166,0.8969288676169997,0.8336147863824809,0.5983238118414214,0.4529434988422025,0.2905347193050334,-0.3149513622528346,-0.5866868505508337,-0.6602750049102647,-0.8538694540749822,-0.8108555402349552,-0.9200163224129779,-0.9081939364409015,-0.6276858281442752,-0.3278787479134775,-0.06877607904164419,0.20155170027210045,0.5454165749306746,0.8036808702580661,1.0104806264659434,1.043280129704535,0.9788144647768741,0.9367299716809495,0.8853419892680141,0.4560493392002963,0.2987318158480955,-0.07717535795040434,-0.33122968920390955,-0.47212091518796434,-0.7921260844165989,-0.9440463427050011,-1.1358065367677295,-0.885350911341201,-0.7682331550496561,-0.41348504969772604,-0.40030965443606115,-0.053713713118070744,0.25009430889377227,0.6631985938329277,0.7302288978411277,0.9346537807710164,1.0520274259635918,1.004190250926535,0.8455023789223454,0.7331751119769746,0.5798027434656512,0.0854733324275344,-0.10001071018657208,-0.4744422210897883,-0.5392480822093019,-1.0054528940056546,-1.0257795663376854,-0.9606675013224995,-0.7794923348908396,-0.7951033476376682,-0.6247821878773876,-0.1100822041026118,-0.14480139004162637,0.07831731538465211,0.6132636802133977,0.7383228990951015,0.8339214561011985,1.0692243335588867,0.9942674529876474,0.7967263404536026,0.530722305234705,0.491675872423889,0.17832779539713672,-0.1980424487465679,-0.2877758688749039,-0.8207745893197513,-1.042698257469867,-1.054720145599023,-0.9957963766274881,-0.882417683261718,-0.7638820568654633,-0.470247726205154,-0.3503098829417449,0.2200052062917796,0.361316713101494,0.7415401051870818,0.8670541078015279,1.0056515898593004,1.0567976506929582,0.9934608535223509,0.87550826720535,0.7328813544619461,0.35375628846754203,0.10874185247653051,-0.2708380543895311,-0.39373118475406327,-0.8323303228231029,-0.7419645597465286,-0.9995420678729929,-1.1214866511573778,-0.8594542858711172,-0.754856476960995,-0.35468475107289665,-0.21608669509162065,0.10620595383989175,0.2497950328772052,0.6415206792885852,0.6298767946992979,0.8200188585969996,1.0715677384229894,1.000638618902701,0.8072368487956709,0.44104529198610537,0.25709334934661515,-0.03820173062673123,-0.4499406404166313,-0.4496262712719784,-0.7234997621610215,-0.9707864149035843,-0.9971323387702845,-0.9391379871491682,-1.0369550600061932,-0.6545282602803381,-0.43773025574054847,-0.17579074687395008,0.19704591123410722,0.6852219185415256,0.8038427372065232,0.8496337292157023,1.0484960531275527,1.1254648822695008,0.9826091086686788,0.7197291496791569,0.40774589070911743,0.2579471937300004,-0.07395913905908374,-0.31491081759309036,-0.5952355649335832,-0.7481789319953394,-1.0234109027665848,-0.8666492822655194,-0.916284777345034,-0.5810022342678435,-0.6381810170170196,-0.12460153073015359,0.019791078346261842,0
-0.515788123435079,0.7916340233811479,1.9944832739664051,2.2361049395809074,2.594201542290583,0.3004094427603107,-0.6874449498165234,0.016320875504530763,-0.6757618731720778,0.5257274749091423,0.10888230839816532,0.14280902204031679,-0.10590211603117572,-1.438205995081798,-1.288400634037064,-1.0687276987127652,-1.5960708106490098,-0.0017781648097474623,0.5968145625210386,2.7592842544059604,1.4450232115242725,1.6978160169232455,-0.7375663911121868,-0.618869242164406,0.1045427703521048,0.12742457138012941,0.6017582578906733,-0.3408493069140279,0.48010925608898913,-0.5734713980734225,-1.3939847301703288,-2.0780898644292845,-1.0653773636991637,-0.37219803254257455,0.042214541235849556,1.5830082371130987,1.6470337317782078,1.7843030148903023,-0.6197654080262456,-0.019854091874670812,-0.9467927459478293,-0.021795297474350078,0.36854699636077676,0.32558633332987486,0.5411005687075671,-1.120330842680703,-0.69924203481189,-2.0794383639865397,-2.3861689882187918,-1.0036581315046382,-0.8211257182941564,1.3543643736252347,1.6056595025982672,2.2116409436040847,1.2864415512055745,-0.4877056782435274,-0.7052485555415422,-0.0749961012168392,0.38575223582573037,0.9069568079743209,0.9397396725428186,-0.1236710542827528,-0.6260735993143337,-0.8483499222710357,-1.910069934108868,-1.1878548997487166,-0.612462598047863,0.3884309892617456,1.5294995321652394,1.41106845053158,1.3173812941565788,0.13394773484744193,-0.13200873044130945,-0.13581501968729628,-0.5379705489991706,0.116494139186885,0.4300133014947222,0.4471056919043923,-0.4155138167245199,-0.5687631954963079,-2.721902151537114,-0.21626357645856542,-1.4918500241730175,0.20169501167703513,0.5870491870513375,2.007274079797101,1.8097272971086211,0.7863395977576708,0.88526756877708,-0.30281868579468657,-0.08673403565558863,-0.5704281655194422,0.22814496310998075,1.3617138000862816,0.5184943014071932,-0.49761478938797726,-1.6072996943463473,-1.7210909082638706,-1.4065239779361502,-0.43929082903458333,-0.08930804588078223,1.7119219736899565,1.213619153993567,2.3132821003838733,0.421587249231484,0.22722390899689754,0.17008625674886557,-0.42189637226310495,0.20808727871670657,1.05291908607897,0.5682563039292344,-0.030517175513296885,-1.8043721433623028,-2.0616586092861673,-1.2118246600633735,-0.9423022748314476,0.13428009384670403,1.185158612362185,2.2530979271615283,1.5946989684119128,1.3133522393474015,-0.01688935343368375,-0.7764652980202058,-1.1908790796889994,-0.6239887180720529,0.9576878763169469,-0.40735481201304813,-0.014313986486576724,-1.1440204749539156,-1.5535892414544121,-1.6405520347134583,-1.9582775995763582,-0.3226277137464969,0.9934421034705845,0.1027295634741614,1.3937885587128163,1.6243685440522795,1.5250379589597551,-0.018829647226138613,-0.29602250760550386,-0.91370042400992,-0.8041851952979608,1.018398695322349,-0.5795499070563267,1.0853997550519792,-0.44482571074904487,-1.1577326364845542,-1.4706813693936778,-1.5040608372192497,-0.252979943357606,0.5694567026022476,1.7818436112425755,1.7379969127470163,0.9076651889905996,0.21613885898263263,-0.5291477244963646,0.12544019947192975,-0.5523120871253226,-0.8442033176210162,0.5587613376084924,0.9780970272885203,0.03781769851686062,-1.4133581490410783,-2.4648485786086924,-1.7522740517212085,-1.1358950812026258,-0.48459980515689033,1.3318017932755275,2.6084532504576914,1.7825840795403,1.1919344699296543,-0.11989012834498558,0.47786910553646134,-0.39791408808909773,-0.401329890518504,0.27543297772158853,0.5959908331185323,0.10661924117257136,-0.04834846927821945,-1.1908535042680046,-1.8968110816426407,-1.304710864858898,-0.41408649593148084,-0.19916575142391513,1.952427857350616,1.6079636934602128,1.3600575624902442,1.1830894039778985,0.45249236128861386,-0.6829008693231822,0.10574445854195791,-0.24243680657797892,1.2451148348332715,-0.12804218065027428,-0.08855375949753563,-1.3529882644058586,-0.483449668348525,-2.354195195931938,-0.965096053875671,-0.5939082502847576,0.6904063255307583,1.8349885798464278,2.3376911497025423,2.0648005411022634,-0.2710261668823138,-0.003578394119785111,0.36073807979679007,-1.0240624379530943,0.3385987155995484,0.36796682318487867,0.3447249134919264,-0.883599825794086,-1.970911674059462,-2.681952143478976,-1.1200276862427871,-0.31543557801303534,0.37779571754376917,0.9602032526580799,0.9237617771555077,1.8764702141685898,0.41158980453373917,-0.14735682202978673,-0.579336849763957,-0.4340959243324334,-0.41730749277110635,0.312435736027037,0.021575879636957063,0.2717767832608096,-0.29186995344590116,-1.4434478362287213,-1.527102535450343,-0.31879001840583787,-1.0353238366387023,0.04717099585437001,1.852805923410782,2.728111594958759,1.252589999572096,1.5148420882228937,0.011205322546644136,-0.7004538075147655,-0.7389349752146316,0.4265550553648133,-0.09713752920725877,0.2614766673772376,0.44300861662014646,-1.2650865628658912,-1.0144379834892032,-2.2924117449056456,-1.3232376928126903,-0.7035720131074905,1
0.6065488499895917,1.1271415989742102,2.8448047700332992,1.8681016405083433,1.2077209246752376,0.19416566397067042,-0.15406779360258344,-0.43657692287436184,0.24220607542287048,0.7219399392930661,,-0.6286049399287689,-1.5695278536651576,-1.128843617085178,-2.3065234792883116,-2.581752269498581,-0.46961574422898056,1.6955219669244341,1.3746825374488278,2.1776610903667137,1.538633853516718,0.7579565838443529,0.5384479906526891,-0.47762230198446876,-0.16201019349492998,0.1986361722647942,0.001283084662419498,0.782075984750862,-0.2957723686981799,-1.3398520256984894,-1.3265425611308637,-2.1845187147838994,-1.213186848817572,-0.23101254136793123,1.4104079291705194,1.845568779413819,1.7128854515168987,1.6619854095528859,1.1925515876395125,0.1414511468739098,-0.36383241197328026,-0.8373250847472031,-0.3511498629655625,0.21639636971763687,-0.1673020947776166,-0.5909334646235764,-1.2247772975041866,-1.4605525537111035,-1.6434690520033894,-0.6242093243416327,0.2586902504508965,0.239544144325198,1.2656170269790028,1.5227537050552593,0.35713207453152296,0.50825685534858,0.4793206061892491,0.2740526143647146,-0.14450870463189086,1.0410694189558567,0.4068187584912004,-0.24745273471781967,-1.1141027422103882,-1.648954017486998,-1.9525041124115081,-1.2925098820310346,-0.3687352176831049,0.6654280565711663,1.7237760578955126,2.350163313594546,1.8576163482621153,-0.09102381711144347,-1.3139721043010972,0.10714978912440987,-0.9270281301034833,-0.0005344380249131114,-0.2247145083455897,-0.6801519727962849,-0.077992531969518,-0.7321187862788874,-1.9596979211745147,-2.9806611461149073,-1.3294053662805005,0.1959020027012696,0.3168273577671974,1.776819959932028,1.6637877962246594,1.4013421162307598,0.40851408027900005,-0.7073727164345036,0.23794374614815506,-0.1911130494349092,0.22993651114080488,-0.10662381304136881,-0.1846295887456269,-1.0938265241269536,-1.469312310503161,-0.8989859361302033,-2.1912575444880193,-1.4706857454328266,1.1846073719548549,1.273056154642841,1.423879333810935,2.0176715179409754,0.5045936405714911,0.9919146059322779,0.006477905779491144,-0.5396620546037314,1.116441375799529,0.03247084998227495,0.6571024959872549,-0.058646200147227295,-0.3111088012526727,-0.8140418845526295,-1.7192826493554962,-1.6039863626752304,0.003533028423725132,0.5286024613786834,2.6149132867371527,1.793666596430843,1.0704414842966967,0.5897879660633124,-0.811017151066866,-0.8548157411502963,0.41879998540008356,-0.147040170913572,-0.1544467694459991,0.4057803825656653,0.09540426420066189,-0.8936256046201984,-1.22737508798656,-1.9866172072585844,-1.5783654796256494,0.9771198690235443,1.0659375080810631,1.6098682156608541,2.258894553840597,1.2400944506523948,0.4362363763912964,0.7964463624679433,-0.6570874266740172,0.42613279487383054,0.32421291297942445,0.46678116932177016,0.6853244640474621,-0.5534835322951037,-1.2285711347181156,-1.2221620344859918,-1.5601943579902104,-0.8686270418775439,0.14150044948396845,0.5221286783343347,2.782943741171535,0.8312350976806253,0.5407983553206247,-0.17541818679457316,-0.20630681759067462,0.1642798253738748,0.5420850071012866,0.0688032853996206,0.13727738910052384,-0.20743392082775297,-1.2360419295219958,-0.8677699328011517,-1.4396525242233276,-0.6888442491293619,0.331440634333699,1.6430200708969211,1.7756507793943084,1.023026746833235,1.3115403423065524,0.023045449176011257,-0.4851465868686031,-0.06715999530654271,0.5072932727953993,0.2542245692638114,0.5144266727947097,0.8881190091677388,-0.5310485773692312,-0.08199772345123835,-1.472085353385601,-2.385688352600252,-0.2872342359421932,0.6396014006493947,2.0225943702601317,2.0950063787758717,1.4284911822510722,0.19525229229524288,-0.025601879484189433,-0.7577452569947893,-0.5859680754332465,0.332076471377088,1.1702805636596467,0.4833905748940981,-0.8062340213680761,-0.7396781118419846,-0.9964817395932369,-2.040176176048071,-1.2942860108385852,-0.2191089456812593,0.47501098971363176,1.9323598798957695,1.6649248565855803,1.4628684819062543,0.05370172422979641,-0.35618315646372145,-0.007818042981085016,-0.3678235446180074,1.0448888941888272,0.1691906290876694,0.24979636917797526,-0.03115239719430346,-1.962285126419258,-2.6058033368798514,-2.371047820258886,-0.2361680945411212,-0.04947602990044714,2.5063770703362547,1.4531609245596862,1.6870731345145964,1.7330344222360194,1.2113389344300436,0.7446969783356012,0.26885480381262183,0.474243993738949,0.5919698251314773,0.7216655679734716,-0.3545026073230685,-1.2165008521510814,-1.4994064029484167,-1.8435080144033582,-1.6043320178824205,-0.10082848447968656,1.1415576507796783,1.5495104161682685,2.493605216729007,0.8119947234747048,0.5545954374736543,-0.3954226971515033,-1.2932784750317547,-0.28492912381712954,0.05097450872977776,1.117066876305155,0.5362440882711125,-0.8608173082365029,-0.18465008326311183,-1.0609258730484763,-1.3940911483081342,-1.1695251915792064,-0.47971961836177224,1
0.11986413719910512,0.1044616793990194,0.44392741589587736,0.8233927559637878,0.7949622880054852,0.8809416361522796,0.9171096951859333,0.9302781027188591,0.4691562609710651,0.4214599758121167,0.2166040723165506,-0.20761938321152956,-0.5093225914389247,-0.6735889844312813,-0.9093568456495406,-0.8464793604868243,-1.102379076205381,-0.9119160437104911,-0.7191898135837528,-0.5432986710412272,-0.5122842068184404,0.0595382550795372,0.45954952963200346,0.7076214406408716,0.8682594213807805,0.8501900321090006,1.039351868915586,0.8913462153663934,0.8465842818134591,0.6121166025888674,0.2364666443690543,-0.051404107218018365,-0.22636223951865359,-0.559854215827861,-0.8487192356828878,-1.0143416220102965,-1.0259093576071805,-0.8215986614737516,-0.92487253058339,-0.6881532650392618,-0.42858467720281473,-0.2639269363105687,-0.025458951222896126,0.33608503249819177,0.7114590489941311,0.8809978331537338,1.0486497978606786,1.0052012623044708,0.9111036738906938,0.7042898651246627,0.6262035852852809,0.16994647108873623,-0.14888142844727134,-0.2773986197585786,-0.7332818325140577,-0.5697568913527288,-0.9406906594647019,-0.9650303110372492,-1.0408182503962615,-0.8643080575879157,-0.6724862337165094,-0.4237153297076244,-0.01233257073347746,0.18019833670016266,0.6072033887649961,1.0060766860918011,0.8771975041793264,1.0064693263495998,1.0234775443274498,1.0712962216367494,0.7055013341833217,0.38953787651383687,0.061490811806065554,-0.11910607234449465,-0.4492681615012666,-0.4577518161717948,-0.6761479614595791,-1.0733246644028867,-1.0694646991838694,-0.928667727025586,-0.6488056792744904,-0.5635609215709618,-0.3629219748454712,-0.005888180990273448,0.23534942465705994,0.6295099561520107,0.717624950363895,0.8850011325715759,1.1145820701745608,0.89305088687912,0.7085214002712624,0.668252120237427,0.3683827991754238,0.16444922769426856,-0.15637766889552157,-0.47563141794400443,-0.7198704552341363,-0.9637315853096787,-0.9771946315115745,-0.9031092968486604,-1.00409630233393,-0.7402981887159759,-0.4016143902831216,-0.1746135312010262,0.2065760355195259,0.3127175979573183,0.4467336771887832,0.8528467535593267,0.9962333494465688,1.1366631181170053,1.0675045709913153,0.8649103535198371,0.6765051228657399,0.31492202567673017,-0.08406998441425045,-0.25009236322271156,-0.4394855599362337,-0.6990550056343171,-0.8386778691216769,-1.0383018415132337,-1.0049638247474166,-0.8239221785507351,-0.7414020506643817,-0.49032081296506846,-0.12102607352363544,0.22691477147706146,0.4187962386388183,0.570432365108135,0.7986843358579077,0.9987763494348806,1.014678369195156,0.9461824168031521,0.816820621676754,0.5383239621532648,0.28837008944483655,-0.04234415900055493,-0.21923082320444742,-0.45673189832694405,-0.9301371194565927,-0.9742151917308414,-0.9965484735156669,-0.9866677391453552,-0.6534893140306762,-0.6074149942192986,-0.4500690136457955,-0.015984511928397532,0.25225339440731603,0.5358725578119224,0.9205460669597418,0.9418301457694634,0.9608716226045382,0.7900016959798891,0.8736058385630471,0.8443631044198627,0.46332265652405524,-0.035880127483309904,-0.16314391682050433,-0.3051612857045918,-0.6041710276455846,-0.9371222931783506,-1.0264158592504347,-1.0394595547391934,-1.0023161150005666,-0.9914957083043276,-0.49290312514608214,-0.1724919153777615,-0.151844894396476,0.4225832043052918,0.558959915068343,0.9110415563471501,0.9398397814433144,1.0119431480448144,1.007130846308749,0.7741275710137476,0.7782201595345967,0.29229207578839606,0.07310100314960356,-0.1356983946043127,-0.5233590925282169,-0.6360129886056417,-0.7525591230589976,-0.8842747385055149,-1.1848493063598005,-0.8941669312320514,-0.6368901900101911,-0.6371281505387894,-0.15279488179981304,0.14237482404838486,0.24832284174692434,0.7132337886022851,0.8600513525167509,1.025014446816049,0.9031896840932246,0.9637036091577579,0.6407481358053633,0.3722669806953979,0.34818701415017,0.1479012373938103,-0.23657080353430043,-0.5440875126934251,-0.7834445046226632,-1.0163151421819168,-1.017712363188089,-0.9362406941191285,-0.9157869506422589,-0.6116926258299293,-0.4191516025853088,-0.1191263553840409,0.23969057251646575,0.38607356270625925,0.7526893698321881,0.8336170556369962,1.0123605893274559,0.9309491377449028,0.8309882207311444,0.7738775671820238,0.3492229010969149,0.23223774060992497,-0.19847917727859243,-0.2561807680660162,-0.49495504183780203,-0.8976311133606693,-0.9058587012732683,-0.9099073513009883,-0.869729345693745,-0.8113364897666,-0.5563800544721287,-0.43446496213280805,-0.06731649931879052,0.1784455998436251,0.432074468478037,0.7433647902267849,0.9415046658097894,1.1075886517874354,1.0120448913407893,0.954338793873557,0.7790944300120933,0.7411930050493709,0.007121622041383474,-0.1821010642849765,-0.2570245343470556,-0.6939540525871276,-0.7645538897671009,-0.9468864292342444,-0.787868448708151,-1.047350180520645,-0.6663482662784886,-0.39430410468081284,-0.3996397987634785,0.0782870243581317,0
-0.02460624881299486,0.21387325151504621,0.7863565069578473,0.7709397402871321,0.9483652184927213,1.053537226432998,0.9742476262477726,1.0226393075703522,0.5964878089283489,0.42389088511960155,0.03906061903146518,-0.32012711349070433,-0.5336164775701993,-0.7174697923919799,-0.9330759628291225,-1.0547714365982845,-1.1318695213591208,-0.915062185456852,-0.8902304884829214,-0.429447669487621,-0.216911965229244,-0.07012640406203656,0.33861092323577047,0.5545948814692114,0.8646990242056786,1.0940213125462372,0.8123036757051633,0.9601926054353588,0.7952227116619284,0.6671001090937423,0.35542383432116037,-0.03735545645620992,-0.29376987852746705,-0.6173454919793597,-0.657090378757315,-0.9199274381704189,-0.8054072042332581,-0.9844752223270347,-0.9431054040532405,-0.8381227504747856,-0.6190630735973602,-0.3092378914619234,0.17753696226252175,0.48962160829475826,0.5286322410102875,0.9617685587698044,0.930103035777228,1.010205574007114,1.0832806658631566,0.8543750242037287,0.5108898415084283,0.17274526241927912,-0.25302301685059975,-0.40601950342163096,-0.6210791253314616,-0.9099539439337103,-0.9618156942298467,-0.9921357343738609,-0.9824618661247307,-0.8977818312461071,-0.6129450548316012,-0.3253377659838193,-0.18466865362874474,0.36624917849731775,0.4955944526281518,0.7416434133743035,0.977573070519637,1.0145593881182875,1.0808430020022235,0.9188581568975802,0.6525223752230969,0.5085899210002833,0.0737522416365698,-0.10245170702361892,-0.4077531386603244,-0.6795644308290489,-0.8659879546711688,-1.1580722861602908,-1.0532611796030478,-0.9267602477001631,-0.7725426823306266,-0.6720297493006628,-0.1716271269601964,-0.08661748482145108,0.39514363109933826,0.6119816713952309,0.7239055905459851,1.1135758270752238,0.8790250056533032,1.0618027989715273,0.9531924353315765,0.591690724194132,0.5436766696023163,0.08830302614137792,-0.15925549944064488,-0.44640738460254614,-0.7271969868341915,-0.809064913061417,-0.9061804665556774,-1.1660909723157553,-0.776317603906167,-0.9060076498833899,-0.40219864542241707,-0.1124854268399378,-0.03346789713706522,0.3284504021452933,0.5192400551796762,0.8112894701348845,0.9291728395253462,1.0777869758966718,1.0797208721325777,0.9508043722975866,0.5437492987908663,0.3131819841229413,-0.13050234250442383,-0.34245149161042143,-0.4412577429892657,-0.6031328102623488,-1.0454934902256054,-1.054772698723848,-0.981049716641467,-0.8442486114802348,-0.7677116632056709,-0.3963430015253593,-0.19820823186847222,0.14937907007354279,0.49337753077212915,0.6873935381945926,0.8286261383095338,0.9674481605529877,0.986689976888026,0.8850575000494044,0.7388114863504681,0.6976076233494916,0.31795642975492927,-0.0673895085205843,-0.26440873104631774,-0.6333480504242952,-0.6939235274599251,-0.9117257783008066,-1.0105511370701605,-0.9152045753628953,-0.9898691883706134,-0.7424872689192525,-0.4889243315806666,-0.06133443640809396,0.3984074404712059,0.7285832804758434,0.8035635612238986,0.9568360756884282,0.8111320015766639,0.9312619586374971,0.8113673651865744,0.6516813528620322,0.455625186621195,0.1409158045989277,-0.31123765863883845,-0.3296391139841176,-0.7660270476757668,-0.8292095171161621,-0.7624791146355292,-1.090327147987594,-1.1890734900889066,-0.8171287437183805,-0.4591662717082106,-0.10236316562461142,-0.12295495944524365,0.3478678333703125,0.5227311895300591,0.7779334860999491,1.2004790725159733,0.848091655989436,0.9952613477599849,0.8999035207038187,0.7673313775957292,0.41422845494296406,0.14411273155168086,-0.22728971911080872,-0.44552687435515975,-0.7480853402368771,-0.8279885513917882,-1.0224903722152618,-0.9535277356017197,-0.909677909562485,-0.6271534260026135,-0.5105926382154323,-0.4024591873433887,0.2018208959558528,0.278958600854489,0.564433888163387,0.7732154437594082,1.0974200772610037,0.7862535012718683,1.262464850886619,0.9168416721252008,0.622289992861619,0.3286147714357664,0.06639688420344497,-0.2097522421228746,-0.47322134770400487,-0.7091306460168311,-0.9131005349120853,-1.0152601148392912,-0.9935364693109241,-0.8917555553974642,-0.5733743015268005,-0.3793934337436829,-0.4448631606278096,0.21641437481434583,0.4582227254436358,0.6848804355689032,0.833412882053305,1.0908204129441734,1.0902789190208455,0.8447708362552567,0.805396321329628,0.440577232844898,0.12390266848192011,-0.10051319917667091,-0.2478648242591011,-0.5046535969110848,-0.7599274492088594,-0.8761804188358182,-0.9482030939582418,-1.0241244274662187,-0.7895893186963701,-0.5497695695055101,-0.2941026979594112,0.04326259126300577,0.2959863252428091,0.5405980866107316,0.8467734749114649,0.904099502269076,0.903050309869165,0.9692226422165241,0.815655475896757,0.6462482851897013,0.45798770140812306,0.10888287026864527,-0.14410383056516274,-0.5937916062912422,-0.6374233743644863,-0.8530136559910505,-1.051596244717347,-0.9324641219857115,-0.8422877240516181,-0.9492843079672675,-0.6455347130646841,-0.3751121460254084,-0.09399031011088942,0
-0.015492460183627647,0.3682715395599551,0.5414231181269681,0.851864453014731,0.781965433571186,0.9851370208747616,0.9777769912703781,0.8554480758370936,0.4934608753179056,0.5247414042389578,0.027840383104128327,-0.15462114984238695,-0.47164314021493764,-0.613395160306071,-0.6713968574399759,-1.1145657870651826,-1.0561291631191874,-0.8878423788100773,-0.8502937828351004,-0.4272350050610052,-0.14081867830698847,0.13157365348396022,0.39319000602837656,0.766781399825248,0.7172190249968744,0.9665030874781783,0.9259406357967156,1.037681630777134,0.6279018747679492,0.5971577148893978,0.36762804020438633,-0.05690773677970546,-0.3244834881829619,-0.5362050081618002,-0.6691814546730273,-1.0253455258963184,-1.0813712668460274,-0.8658503638415382,-0.8995622673541777,-0.7645052151980006,-0.36588062625007417,-0.19964399688459908,0.2535664506952508,0.37237706827379363,0.6707918550310012,0.966761893901066,0.9557830538281968,1.0711316050164237,0.9155038423595137,0.9628602732571784,0.6946207667092965,0.12905485871743308,0.014382891407131733,-0.4157445701074931,-0.5808154075694191,-0.8043989282875658,-1.054228699229865,-0.8939724683167053,-0.9396459735870154,-0.8612498767310195,-0.6736215044526335,-0.35555413396413665,-0.034836244133031574,0.21265836188686418,0.22220130877895716,0.7414475227040671,0.7626034220330036,0.9702925184270299,0.8450729129039348,0.748495976869451,0.8372782948819935,0.4404303703852341,0.1484586463864442,-0.06505527271841209,-0.4414891919031236,-0.44837213588905395,-0.8804361795998777,-0.9333748404122257,-0.9012945556912655,-0.7758194152535836,-0.8627289350961307,-0.6110585855919314,-0.170738723517315,0.08100623040526815,0.40571550461351047,0.43239178085209556,0.9433282969227673,0.859903983485792,1.017617986643141,0.9550650938513502,0.7652859198724716,0.5174991687596961,0.23004532793259364,0.12520951820667067,-0.34065677139197614,-0.5858211279883565,-0.7355697005069587,-1.1540265904033853,-0.9076313674064986,-1.232226591702618,-0.9144888673272595,-0.7382565284203935,-0.4516470938384019,-0.2293240207616855,0.2774195422677785,0.39116351909760183,0.7351717619526359,0.7604352922767292,0.9720519485628671,1.1545779321726304,0.9249204850516528,0.8304594676381141,0.6980514463624441,0.2598812194782306,-0.17831455661424814,-0.23630711958956566,-0.43887598936321115,-0.8998356691063691,-0.8550366133098795,-0.9278296340746048,-1.2057587668571048,-0.9658935906028727,-0.7263341892866724,-0.456711505995292,-0.22513772363817897,0.0711240168031525,0.6058973950899684,0.675995398027608,0.8027603613472167,0.9742921932543157,1.049235356114674,0.927221240708738,0.7441183335343811,0.47274123943197455,0.1956514004140455,-0.09762231536620422,-0.3002227114163176,-0.699384110688873,-0.7719090688715671,-0.8073905219579329,-0.9672501868884177,-0.9969348208356368,-0.9625942616692266,-0.4719998412371206,-0.4865335960006523,0.00922745756311015,0.2890077265821453,0.48177640556017426,0.7134605707017551,0.7231805007898804,1.0242442750732,1.0475219718504798,0.7812377287626178,0.6981839652542335,0.476225759980569,0.24658212516359723,-0.11292736998894093,-0.5670620749920294,-0.7117465220480351,-0.8306716249883751,-0.8857345474065507,-1.0601523497683762,-0.7172797503592717,-0.9779756284140659,-0.6256322527138578,-0.3065012713959481,-0.020074916355288373,0.17498367806517706,0.614048409983244,0.8256377266617548,0.9408408824124245,1.031573075154803,0.9275097404657244,0.6913979085164186,0.58708875809657,0.42013559773681863,0.12958211908591022,-0.1839869571100448,-0.4175687416811673,-0.7718807172321377,-0.8874776346663397,-0.9283200607704064,-0.9997267568421737,-1.031084021034597,-0.8359072880453841,-0.422368033428647,-0.08590872422844328,0.19315705666685856,0.3927474259149544,0.5094972618265997,0.8321464174864706,1.1162017811389642,1.0616697607153853,0.9279422452522322,0.8740985145027174,0.47302658078714255,0.2645370337125748,-0.07057766238455321,-0.21490730312596518,-0.4663325563270013,-0.7800736953370127,-1.0093515707115668,-0.9975011821620213,-1.0270671300129537,-0.9518817978315706,-0.6528519426825823,-0.5145483282236365,-0.30745927045779087,0.01641285012505103,0.2784230592901633,0.7115025028711134,0.8873052711798101,0.9884611503963882,1.0542994380565538,1.0412544886493293,0.705464439534663,0.5783906540228685,0.10390293422022545,0.10002949790866068,-0.4585872953191927,-0.6709742133527372,-0.8710069425918979,-1.101317097192839,-0.9965633649288813,-0.9385858811237753,-0.8517229402619191,-0.783835285231386,-0.17119320745559746,-0.020705666234293735,0.4885781448876986,0.4249423418679441,0.8355466738975199,0.9846790169333983,0.9621802646822005,1.1266344287168228,0.849604739616024,0.6776769707446788,0.12529657928583654,0.22902766774290514,-0.24585866876949936,-0.45950225916541476,-0.7613747089762829,-0.889757357459099,-0.9254993585887844,-0.9972745325240763,-0.8650806087636933,-0.6619653679718068,-0.6061418288758463,-0.3460546352482899,0.09577276536619803,0
0.06802161054504495,0.41744866229446287,0.3914034768074143,0.8204935041222635,0.8856267547135055,0.9902364215187867,1.0046550299643608,0.8044113471159215,0.5911819371856328,0.40784538134467974,0.00458308371498975,-0.2967073752571523,-0.4045022401840203,-0.8286455162030044,-0.8235144902864754,-0.9392702093255039,-1.1638184478709972,-0.9745080934275481,-0.620347510775084,-0.6035698189705494,-0.2715963667536331,0.12183483520964614,0.44787088186901636,0.6046566334238203,0.7730305536945964,1.1022132541137737,1.1737108890494956,1.0465758025987966,0.8197678054750949,0.5191395292846032,0.25105973084173494,0.09009288724424774,-0.22002466287193684,-0.39758304700436786,-0.6996460833635609,-1.072366633213595,-0.8903315110362671,-1.0782152036770138,-0.9106618545574293,-0.6617312905883335,-0.23918235699336932,0.16016755843916172,0.21149660307499168,0.4204294440997261,0.7402018760615559,0.9610302699495765,0.9463423783898528,1.1750474083997913,0.9450656789567543,0.814465401526315,0.6043353315044577,0.30402314602225344,0.046052573329291975,-0.39582949015208124,-0.6557962768432952,-0.9212514145157614,-0.9047398744585936,-0.9219272723185263,-0.9141989813287343,-0.6653323298290074,-0.6303701239111786,-0.30265766538150896,-0.18479883349839155,0.18644597027525067,0.5750070416131557,0.8246686621541331,0.8773549334275631,0.9840778498061308,0.8337419639428181,0.8544428202967369,0.8028044290391192,0.5299600700903297,0.23819143450675695,-0.10833030888317523,-0.4037238237330607,-0.7247848590491397,-0.7832513615070222,-0.9277900871715878,-0.9491868040296717,-0.9886482220810326,-1.003862613517491,-0.4595469640326974,-0.3460816566475069,-0.08627757640431305,0.367545802238064,0.5300609712161495,0.8945219599350276,0.9977453327719423,1.066745621148999,0.8332918104904738,0.9743286020659188,0.6848777982251821,0.3675024256712631,0.1276465243354983,-0.36574838565846257,-0.43157428733160114,-0.816703263505344,-1.0254127689617487,-1.137765257232688,-0.8799689374929447,-0.9696779675632611,-0.5863856800881725,-0.5590334121618126,-0.3958917362819908,-0.0360236981104113,0.4931129929414456,0.6142207042346031,0.777952843514698,0.975978090529199,1.0499991962864923,1.060429879110863,0.9560859142078837,0.563989236869788,0.20149940288919024,-0.0035050393946563993,-0.23583643430251394,-0.6341187989200725,-0.8604061841066762,-0.8876798148826248,-1.0003915079656036,-0.9751294414044156,-0.9481142608322024,-0.7097913826340829,-0.5311724203985987,-0.06180445604890192,0.2543492306337459,0.2541303197479498,0.5938002251942578,0.7226118018531827,0.9134067475048809,0.9871824758295235,0.7770940810677642,0.6725051113046471,0.43734716909087,0.2825912179006998,-0.03090704301404322,-0.40627792683111663,-0.5822840142347544,-0.8659039996773158,-0.9758555085532213,-0.8324757136398839,-0.8259301627648883,-0.9627396968565234,-0.5468372802403546,-0.2883921754916019,-0.19045507475972648,0.3070337048981828,0.6592464576978355,0.6275039704553814,0.8150013460925561,1.0930039216762881,1.012678869693464,0.9452933679013505,0.7478250343271935,0.5115091605724884,0.05547764953753212,-0.008575906939114836,-0.2874711403530936,-0.6816918195085889,-0.8574818985086633,-1.1229981318660989,-0.9469632132271681,-0.8788389936428592,-0.7947474232303006,-0.4568268992210175,-0.3316056341446649,0.05646059258935807,0.19623147717744877,0.5669070201206408,0.7710928957400791,0.9585755300183639,0.9614359959456156,0.9567401220433608,0.935738920671426,0.6150763213779727,0.2437724295220066,0.2882660680218127,-0.04997945449958094,-0.6016658379902324,-0.6447953321626166,-0.9404432174325276,-0.9591806170777926,-0.9618153620905889,-0.9301924082256193,-0.81813501763847,-0.5745073710882096,-0.3167751320708248,-0.0075534749385908345,0.36281400193581537,0.5582345231171939,0.9009867797350194,1.1087008834775147,0.9418155985327336,0.9726304475741572,0.8612045022488891,0.6471663285406304,0.34169969828900376,0.11210971855365151,-0.21363958969274272,-0.6615091485317404,-0.6777754861782486,-0.833329519310936,-1.0718548832264168,-0.9746153574008127,-0.8039318280810891,-0.7076826931714432,-0.3314513011951679,0.08556295230055452,0.07222569389787148,0.3006446456563808,0.7171331707739805,0.9444209778748079,0.955322503561095,1.140852339140663,0.7881980230652927,0.8339829549203356,0.4771568242231373,0.43380227558154283,0.16141005859913743,-0.4107698302757118,-0.6549218150395515,-0.7252772025206085,-0.9874030624995693,-1.0043620444629613,-0.9574374258896824,-1.0247488887835297,-0.6311942966377021,-0.438504608347186,-0.12494102812443574,0.36951914086958415,0.3798025764286477,0.8210789697546199,0.8788553351608012,0.9632617581423534,1.0645665282160717,0.924150869834291,0.7708274124090926,0.569258034532961,0.15499402405030913,-0.17453135105203374,-0.5129451922516435,-0.7412937980996757,-0.5582247609964004,-0.8454194235368493,-1.1334961254497542,-1.068290533488631,-0.7403417153585209,-0.5145357554702661,-0.2433095275149421,-0.025495579355372725,0
-0.114553821799892,0.16186064857454954,0.6400258775789147,0.7894321401815965,1.0425324117432964,0.7843621009511533,0.829819982498671,0.8545674095116924,0.7005201149501727,0.4891298483648231,0.1307894544821478,-0.1716593468327768,-0.5113797227826905,-0.554675622196687,-1.0004480859244465,-0.9496273233553051,-1.0900186584507394,-0.8532737736134817,-0.8434602080185978,-0.4310716960065354,-0.2139454458402426,0.25009266321032464,0.3414298662135983,0.6723071336530243,0.7548159451176896,0.9311869672997934,1.0103958706141731,0.7959680052734797,0.6694735978001153,0.6599520314322603,0.3194954893442235,-0.021451176587130194,-0.3355631030024808,-0.6075917858713802,-0.753436021116352,-0.8775550166259941,-1.2047369957710812,-0.8371257352685835,-0.7380946510679949,-0.9198167875681929,-0.330156436339486,-0.04530241202827012,0.15086884658012792,0.3090322437832772,0.7882741203800081,0.8481416207324577,1.0332970253274676,1.217446400004737,0.947242278099976,0.6730026234453192,0.5041698068070394,0.1829199489367091,0.005507495027183,-0.41471092737236936,-0.6472512436836564,-0.9396790286593519,-0.9618986980725306,-0.9821454433395328,-1.228455072655672,-0.806824217015739,-0.634380545137952,-0.44603102581637294,0.12723414654252718,0.32100359328316624,0.39581301724143786,0.8235821390369328,1.031201435796087,1.0044398672536932,1.0216735423056316,0.9239804070695569,0.5051845267948117,0.4537526087946332,0.16423357817023312,0.029707886054716595,-0.3710573532396911,-0.6885138413134644,-0.8621466776263769,-0.8675488234477866,-1.0168471551534832,-1.0058642911234355,-0.8160985408224533,-0.4751926208257987,-0.24858142048687284,0.004426797334910402,0.3173518409911476,0.5132879878485141,0.7691333814861001,0.8697143056368208,0.968910760398977,1.1045052079731896,0.7453470223895596,0.5898809784595049,0.27900025330230827,-0.033783198117486646,-0.20680205378815972,-0.5342004866597468,-0.5375972196079175,-0.9184303949951745,-0.8565896522678963,-0.8944371274978739,-0.9276470437163836,-0.5287448928712601,-0.4785998672101019,-0.07385501392229724,0.21528843504258102,0.41099662945123006,0.7049236068088549,0.8951887146757056,0.8455501248047494,1.0055499581150393,1.056114720915083,0.9638546229547572,0.5279021342655016,0.38698730167869605,0.052928498045424655,-0.2736518914189621,-0.5021426433765088,-0.7428913515505582,-0.8679178461503545,-0.8513545967135533,-0.8999963818591042,-0.8412056014749253,-0.5002888055311983,-0.3277561463837346,-0.16006414102171543,0.02911225692608016,0.33996603787971263,0.7800745560450623,0.8092334794368925,0.877603593234376,0.9197177401398395,0.8533201718285472,0.8497558593954035,0.5220686987207923,0.1246270249308648,-0.034736986941432596,-0.31187755825256713,-0.6478997875927794,-0.6956474827993192,-0.9907838860898445,-0.8889871540060226,-0.9002979899764254,-0.7401210223593229,-0.7396656061089115,-0.35970081171695084,-0.08091154634194155,0.08295528803194344,0.6159593388368712,0.6580183613890879,0.8457948453103842,0.8899061914321652,1.0556479712179365,0.7375527685001386,0.7755535927336007,0.57689096710402,0.24184270513121647,-0.04204482921661677,-0.3284754926380667,-0.7536951777743626,-0.7096607055608427,-1.0158950070238764,-1.0050274505879488,-0.9693084696493696,-0.7393741094426385,-0.62306595952181,-0.29150633862293396,-0.12353438171460246,0.4146644318968175,0.6363363298030849,0.7593023453401857,0.8891298348116887,1.062851513460721,0.8991580435469314,0.8656707351037923,0.7748926238449351,0.3233044276821553,0.15016776051329092,-0.15655233567508037,-0.4821732503459388,-0.7641450710975297,-0.7686660346879547,-1.045286202187595,-1.1724416651049003,-0.8426982690308837,-0.8598887860566137,-0.43626515137107497,-0.09166561573835613,0.13860373372432105,0.47667296112950003,0.8318154327212337,0.9294576194246521,0.9930336072064656,1.1632157410221027,1.1241675520052778,0.9881131695445378,0.5507517499291027,0.1987023356475546,-0.017477741625809395,-0.19150032338149092,-0.5218270117658,-0.7853391911348606,-0.8660104631571167,-1.1426067809758853,-0.9642922110764188,-0.7604189628774084,-0.6318197467576842,-0.3695681237883962,0.008912981833869904,0.14420996867400301,0.3734399398367247,0.8057028154799972,0.9893767904655864,1.0342383084211517,0.9794891727503148,0.9221965681384162,0.6370137974040658,0.6490375593197469,0.3696296159137275,-0.1690097517643528,-0.2473409631067634,-0.5595559359477926,-0.9134334022576683,-1.0692900176278648,-0.9624715957295653,-0.9997466793346153,-0.650786688108797,-0.5345506825633877,-0.32216251726754586,-0.023320845484219088,0.3582426585594195,0.5901050750293071,0.7897350949294244,0.808725510564231,1.2974324715325587,0.8752110628800772,0.8588914666673855,0.5482932850461397,0.5263193843566011,0.20323590609712214,-0.0367800337647827,-0.578336702706307,-0.547462178363687,-0.9338777436742344,-0.9847879015469145,-0.9052315619608455,-0.9099180694010841,-0.7553340658636836,-0.4893443532175228,-0.2553188470528061,-0.03411079025487467,0
0.06295295842218109,0.21776633508066612,0.658797778284326,0.7253705486138327,0.9613612616180708,1.0804230900901968,0.9665261251401559,0.8986082947413903,0.6071097807130369,0.38478348125306755,0.09272173451323598,-0.2627826970226576,-0.4901169847912489,-0.8686279425735134,-0.939261115091607,-1.0140168879478662,-1.0168557502414755,-0.9309013727810604,-0.7459348710658341,-0.45750911404797484,-0.13770423310944208,0.010652223199629773,0.24921174540184238,0.5256060808039595,0.7840612810442679,0.924784136162272,0.9228213160499921,0.8190783310956277,0.7656239084711737,0.6181087634600929,0.39360711808094795,-0.017900828593160126,-0.30316426717514866,-0.6304127371837418,-0.7678350096546525,-1.0069014664566946,-0.9382134914844389,-1.1569957901389838,-0.9082276946074405,-0.6566405772943287,-0.42036565433951534,0.11847906923667531,0.18580429961816416,0.33834364628756386,0.6772048865045935,0.6946400940155477,0.9703491660158958,0.9122206671084833,1.0135976305936303,0.709737065157622,0.5260663147194868,0.19830870082036756,0.1360436584676639,-0.3662284481091801,-0.41671039710077196,-0.7298208150067652,-0.9004833247870776,-0.9629476079379858,-0.9205965381222977,-1.025548831098322,-0.6576988614433497,-0.28501603382232804,-0.08051846423187067,0.08463695584233327,0.5002128207988311,0.9101690027053679,1.0314407997474533,0.9850373740553343,1.0806742663167077,0.8534950383405926,0.5433789540044687,0.3799929696667177,0.3444137392194558,-0.14070698578420165,-0.4287685375333802,-0.688736564729283,-0.6627205445699751,-0.8072914900743204,-0.7765106654841382,-0.9519492588542797,-0.7589658726556572,-0.7209264901501461,-0.15050446843483903,-0.1167779551267945,0.3198754674229275,0.459531982444778,0.7296416388564958,0.8523184947093025,0.9376011627613695,0.9159751112956294,0.7983073240347709,0.7420861362798272,0.2939438602896314,0.1353618203026599,-0.06632894713807473,-0.5237592049310078,-0.7855580017618969,-0.9131982028954203,-0.8675568177748277,-0.9718270118966015,-0.9598730576547421,-0.6913707859610184,-0.6156824808402251,-0.15701998947840135,0.11648947665463139,0.33875098382686336,0.5459519421835467,0.7441134809354123,1.0134580015785113,1.122718972918644,0.8849592228177374,0.8570746615737395,0.39126339958848966,0.2756423984316741,0.03473558343058101,-0.3528328266589859,-0.6313935437779711,-0.8314690482640605,-0.892839330204976,-1.014259174649196,-1.2022322642780714,-1.0843347426257022,-0.7474378289992237,-0.392980447366413,-0.42557478143390404,0.10085127954620762,0.3861243203200171,0.8255850890343437,0.8337625461909043,1.0167080394196635,1.009651986817306,0.7090019550568971,0.8415118142803522,0.5592825568446487,0.31269134892826433,0.35478229392596444,-0.5425154654472502,-0.4274964364725834,-0.8399807431586248,-0.9199571070803151,-1.004372147199862,-1.0023999012837275,-0.8897648659876394,-0.5968596484709712,-0.521249200607929,-0.0005708291322880782,0.18353650003417135,0.39244633195254447,0.6947571652802415,1.0324665498802397,0.9377042662903154,1.0213747004318612,0.8170501128058509,0.7895582976795058,0.5409903423586944,0.3729857456982816,-0.13086407215118123,-0.3375646591200803,-0.6489459911478918,-0.7235470253409757,-1.0417706203713997,-0.9238881575412234,-0.9555144674259418,-0.7949471392412192,-0.5600869867632304,-0.2729738714040031,-0.011622904312197778,0.31966922936371295,0.727074040964283,0.8870732900918845,1.0229601970639595,0.9528347362265643,0.8809632987876952,0.9486642593510507,0.7463574243547739,0.5516972071709727,0.05290961500434767,-0.2110797279046643,-0.6363879847322139,-0.7530132232932234,-0.7904886893194485,-1.0321788765337183,-0.927189795471856,-0.9258019387937683,-0.7073527482576742,-0.6202224048381504,-0.21663499555931043,-0.2234848512056187,0.3508422151245524,0.466763197656755,0.9533810248184391,1.037717003220373,1.046488020866346,1.1007906202365574,0.716344339136112,0.7747024212402588,0.4273233279234335,0.014185947995784678,-0.14830247024251403,-0.648372257540174,-0.8471425087699433,-0.9829175753615803,-1.04842404361496,-1.0840649052215983,-0.7499564206526635,-0.7126367512504901,-0.40349860913608115,-0.20785943380274963,-0.031236032893482008,0.46575484181090054,0.49552581367151527,0.8654013227536468,0.8415776370622909,1.1942538727316405,1.0131948752550899,0.7752664717443225,0.6641135740644936,0.17723288721423958,0.016506461149334913,-0.31412312812550564,-0.5735640933153264,-0.6840006412079119,-0.8754407872426376,-0.9709485563872352,-1.125465011566753,-0.9287862026917105,-0.6420814153878508,-0.3601945935131035,-0.18864911835185091,0.46632360808054485,0.6570926713819306,0.7999702831190705,0.9139553143223565,0.9700168780018216,0.890337492608677,0.8978937922292881,0.7395413667014146,0.3482635109315124,0.22154250409313114,-0.12883358248373358,-0.5952108953836027,-0.7447912461797304,-0.8944947568694372,-0.781118615876509,-0.9427333763755762,-1.0695928947242632,-0.7399246925886063,-0.7239926341018993,-0.1899288056579712,-0.047112465181790804,0
-0.21643098678478398,0.26533796723750974,0.684618578074052,0.7366675236273363,0.8282385228179012,0.93472167932838,0.9630596193465935,0.7679971584959957,0.7821344683107234,0.397963386596838,0.05775074280647719,-0.3182592150521917,-0.42399490795177686,-0.6675994832160024,-0.9693666309958657,-1.2091622414423135,-0.950161556034349,-0.9254319673200828,-0.7061513342872543,-0.3097358124926174,-0.2278391248936003,0.024244884200179298,0.2547996341759228,0.5985683428787649,0.8488393081253247,0.9653070100037989,1.1721674566764482,0.9985985540672114,0.7977559040678714,0.5293100435653485,0.3607714478757235,-0.052859339120593936,-0.2438813770070146,-0.48900151360852645,-0.7863363148943195,-0.9850872474441272,-1.2140559575420495,-0.8640254683035336,-0.831934688337666,-0.6439895830550246,-0.5948843395494957,-0.012840427187368664,0.10430261049956538,0.40986957570181626,0.5798226256716184,0.693570154228208,1.0941437721179286,1.1241860097483216,0.9055057879022814,0.6967526356365404,,0.22690298595725292,-0.15782744893562908,-0.3633296930417729,-0.5846559021552595,-0.7094202664537167,-0.947265581119245,-1.1574560935596814,-0.9246214816240552,-0.8583746293307365,-0.4927695526298874,-0.22658605073635943,0.07081668534226987,0.16899714698536283,0.7044387731903338,0.7748527015693895,1.0693896687608446,0.9409758136087615,0.9556696648499363,0.9175484756446064,0.7289538736485346,0.5979207628265901,0.16491193051379055,0.0031538214297644057,-0.331206688882613,-0.6800919669625098,-0.7876665417790444,-1.0172138862938316,-0.7633681088283795,-1.2024779699217192,-0.7212340010808628,-0.7457218261357716,-0.3207635813684733,-0.008560808947125586,0.448961266938033,0.5000470140003734,0.9193295130965433,0.8181630737917929,1.1330556612044378,0.9224528374201799,0.8604776554513905,0.6251148787907561,0.5326664870074438,0.22208166192464796,-0.1437746903101781,-0.5876264069383457,-0.785268299490161,-0.9930033929280078,-1.2103436272901151,-0.8651059648069326,-0.9395339808282519,-0.7736078475090521,-0.35584304251402676,-0.2727548007613329,-0.008418347684138475,0.3470572688892533,0.5165436168405801,0.8672171500925536,0.9226100601175032,0.9490937816103565,0.8892996803185866,0.8006138418343899,0.6083142140006816,0.28210666265664186,0.001964883108156526,-0.27001676764273747,-0.5559847198529654,-0.7615834959296706,-0.9897256833624147,-0.8950669818959095,-0.9687263232046226,-0.9226494026446832,-0.6523128894756527,-0.4461859658536397,-0.3242069326097474,0.18491956618353333,0.3367984857333405,0.7801940895366296,0.8480897634728459,1.056416170684677,0.9325044174887989,0.9290515297516811,0.8857154426678661,0.5108412516575376,0.2027827750872249,0.02766258466051067,-0.27053801182229525,-0.6548410147901761,-1.0097820932603656,-1.0096922952704517,-0.9320849705010954,-1.0374796868862954,-0.8338753568653832,-0.6955590158249064,-0.5627485471933661,-0.14317686358845744,0.292469142591668,0.26842801784999903,0.7649751861273805,0.7881447050540411,1.052081981939357,1.0569612321982644,0.8729509468862706,0.6967992968090216,0.3918032987660438,0.053566522358143825,0.05650161303211365,-0.4909372823129838,-0.5019731319821389,-0.9390842075072948,-0.9173683425767537,-1.1121694047943151,-0.8837052361240721,-0.8210870572456817,-0.6005138512756347,-0.23719559406822577,-0.04691413650791177,0.15538306150215056,0.6453927915490097,0.6739382625321299,0.9876964662540608,1.0956883433622515,0.9323379929753058,0.9713694879364538,0.7069311158879229,0.334843997581397,0.2534505778278781,-0.30229204454256864,-0.5101096114700271,-0.7343975930490689,-0.8296233702755677,-0.8739860088727851,-0.885958619301667,-0.8843767962365565,-0.7677853615261869,-0.6880516900193467,-0.3565705259682222,0.2522942948135972,0.18592463219049693,0.5513614577040581,0.9472422013687665,0.9809475978636587,1.092625429770307,1.002972832647687,0.9581942449546843,0.6295088301051914,0.40044894441254614,-0.03458317648815477,-0.20323118740299476,-0.5773555160979335,-0.8100016794152471,-0.8325862515728965,-0.9053639352026221,-0.8095649253709598,-0.709938408813576,-0.5950197950776295,-0.6107936669954404,0.03194380113358808,0.24262106422800594,0.36216309696312804,0.7596422267697712,0.7685381532659208,1.0402721529565462,0.8638992687011497,0.841236762158954,0.8356840055372272,0.645031580598316,0.2944081709041942,-0.06645834038647146,-0.545590800999076,-0.6208682114138294,-0.7578874835361359,-0.9803665081141826,-1.0020787167791794,-0.9785380147357156,-0.8649521949459075,-0.622222783032297,-0.3968012891560147,0.0687002094787357,0.0045140556843294155,0.4508690072594656,0.6527328287280997,0.928662688197423,0.9989522535802494,1.1477486487658435,1.0852599452071814,0.6364577671300914,0.4724895749830378,0.20775530406107695,-0.1930890524349923,-0.3415919359921013,-0.6827034819782747,-0.9598976885873707,-0.9978442120371823,-1.098156146103017,-0.8323800548723485,-0.5983723960190029,-0.5447802978186088,-0.287070234241351,0.015243476687415642,0
0.03676198402097109,0.313006853026493,0.4811554015419367,0.7173062451654607,1.0547181998320059,1.142022229399549,0.9460763379793218,0.8577344782526042,0.5682913076024174,0.5217058241226218,0.17984935997044788,0.005996881277741201,-0.5602718761976446,-0.7515669025889604,-0.8670011481248393,-0.9208803848383219,-1.0128045387467006,-0.9940477372393526,-0.6516176981874641,-0.43333972960202305,-0.3167833505790668,0.2111730259950061,0.4865517018604172,0.6432401717530492,0.8407413594013642,1.0153820450555135,0.913650615644112,0.9516931454370253,0.5959976367576745,0.6876116659989894,0.1779548492532055,0.1881834595605719,-0.2948764943574502,-0.5589096044921285,-0.8274644832256254,-0.9508624904298207,-0.8536731382937552,-1.2271900065990806,-0.7445681887533754,-0.6529489631033321,-0.5594512707574874,-0.25835553646629816,0.31846359988219375,0.34419841797749173,0.5714162601539049,0.9859961815986658,1.0122644285741633,0.9017337151549192,0.943721100578076,0.6621158242531477,0.6478250461412721,0.36800158144812123,0.015359143164525066,-0.29793806537268724,-0.4238472889619547,-0.8112673584797694,-1.0668774100626963,-0.9548735313865071,-0.7513715629902115,-0.9342575224823464,-0.6659567986976727,-0.3278872271306149,-0.08101923078503404,0.12692558248495933,0.6176390514796251,0.9717625232815447,0.9263647740963721,0.9008309460183375,0.8306332861055514,0.9159433384995159,0.8241538470187664,0.5199563431292112,0.18788447827675062,-0.17223484278020185,-0.5136465028676873,-0.5752776124693068,-0.7617570413887171,-1.1244603602796002,-0.8394047910108832,-0.8786376157248744,-0.6485688570157873,-0.7034750100565785,-0.4347803265882104,-0.014896930976730673,0.348476353736184,0.7488983175007587,0.8591362129118786,0.9117766101330692,0.895751768062362,1.0928874388824423,0.7566636609522072,0.8215996005790287,0.3759916746352325,0.27236588486305824,-0.12023173336270274,-0.486139117423914,-0.7657057498697494,-0.9242365281120032,-0.942697669373375,-0.9835221253701656,-0.9661327690008528,-0.7563215921115857,-0.49759556288466783,-0.43802934996417736,0.12144555736332449,0.27155970846907107,0.5144772817076952,0.6640471384526869,0.7805870181571313,0.8642761723585088,0.8777879017575678,1.0065619049712478,0.5473781338591761,0.3518791821241972,0.07788961536830408,-0.24875796633921768,-0.5454872523716108,-0.8842204689770964,-0.7769658482096922,-0.81480660844477,-1.146675010357843,-0.9746675864508335,-0.7147323454512068,-0.5352028854627874,-0.10022774181579408,0.07799707692070938,0.6552547127524194,0.8058061706478585,0.8935221304254122,1.081107767277544,1.1061163152442903,0.8656638542317929,0.6830693681629819,0.5455572125959847,0.3480280974105998,-0.0239354368523265,-0.491803819716491,-0.6802485458437785,-0.8186332775780271,-0.9562565579531991,-0.8025667049907568,-1.0985750621838228,-0.7822226489801761,-0.4808992111954431,-0.14238685639848148,-0.11606848820286077,0.27429888579471673,0.5624293015764449,0.7593066242351519,0.8968671080700519,1.0348353139419424,0.7323047300889307,0.9583526893836614,0.7263839030533406,0.4501920788018474,0.3928110819405962,-0.1808010794803149,-0.4447377385023741,-0.4595974148813128,-0.9363403340122628,-1.0248989099041805,-1.0130912311720366,-0.8519712896013187,-0.7677480707950382,-0.698524769923294,-0.35141476735938976,-0.0607354433212231,0.2904758065243558,0.6118466010710474,0.8303488971191599,0.7584435624094296,1.104782787585037,0.9951442662101899,0.991587408286666,0.7031725778308617,0.5145624353694508,0.1599622087462833,-0.05350228674835478,-0.42021450487789264,-0.7235576373314265,-0.662902268332705,-0.8966256263829093,-0.933863332891497,-1.0343820698478208,-0.8685892128261841,-0.47618171764239836,-0.21060382074587647,0.014216489383622022,0.38363010090195687,0.7886732148326286,0.9023218206187873,0.8458754169686482,0.9886700399554436,0.8681933494353633,0.7724659995777395,0.5586045348857387,0.28633961323699453,-0.0876720604796602,-0.27462995311262745,-0.5938036699837416,-1.0576359616174027,-0.7167614005874439,-0.8866493073868913,-1.0160392134380727,-0.8703828223881362,-0.8039167459452632,-0.2691768181906825,0.038904572315929586,0.1664936699860222,0.5411021703902927,0.7042799891068854,0.7385921834746005,0.9372268040492062,1.0087190694857553,0.8766038311632732,0.7428257648736709,0.5286029505481152,0.253776635174267,-0.03261562766792607,-0.4401646781370371,-0.671667716361487,-0.9396944177885856,-0.8509084425519978,-1.2103856168537699,-0.8446172336122308,-0.6941466334374797,-0.6600285807265405,-0.6298455397234985,-0.11175980208118758,0.2187375243938208,0.40439344386368203,0.688236611698998,1.0597711480803171,1.0577304912221108,0.8930729271730905,0.7303858234178586,0.6810643809261624,0.451093890544631,0.23774478110497305,-0.1668393488580246,-0.3532801820596775,-0.4652373410957572,-0.7715841012828466,-0.9746962323436053,-1.0167037359342814,-0.9717120512322611,-0.6704642302851556,-0.631993579803193,-0.2936756401466803,0.005119790188105595,0
-0.7636478452139046,0.20521594216690664,1.3864283174708383,2.21039359053782,0.8346687197238298,1.1483022383362282,0.3796691345922206,-0.21886891243034745,0.058013666765953736,0.3845900934042019,0.43986903083627726,-0.1461093118889696,-0.7765190837170908,-1.917819358837741,-2.8598615708464648,-0.9532716683813147,-0.5852758281018134,0.4521278860189318,1.576942554647714,1.3442169757440685,0.9971880675507192,0.6655590636008479,0.7629589900407112,-0.9168555441367062,-1.6092390289349645,-0.22291327674258893,0.9066782696015354,-0.5802172021945763,-0.7984342922619114,-0.8302060756629828,-0.30984396517839796,-2.4143905581514784,-1.925744473236116,-0.05710385862623682,1.4697973662515826,1.2961703068109873,0.9147018528283861,1.4699768703959153,0.8048685117823423,0.7518735569671029,-0.04053516573283117,0.23262606961406632,0.050334396638170964,1.5897608929797047,-0.06161699899221004,-0.8034088738367384,-0.3483448006934369,-2.462517570337174,-2.5319238552378014,-0.8076816839554913,0.22558478140798865,1.1133334367268026,2.232249602449206,1.1406943917717818,0.9940630087644138,0.028239514031384222,-0.731664060035975,-0.3662483534642854,0.38851063248076456,1.3559904107461316,0.6221945213396292,-1.3343272498595258,-0.8264714531607427,-1.4728177787915175,-1.2903111983509188,-1.2853128419739088,0.17752225044300107,0.859740354302095,2.284706007771282,1.535467216177229,1.4550110141898003,1.0647459348084565,-0.32310857199684145,-0.755016567535765,-0.5582648307391151,-0.2627595456230325,0.6216229651217537,-0.6965657688235529,-1.1267089092308655,-0.1803231202515796,-2.033991081298244,-1.585132574456578,-1.8008563511038234,0.0470621338946344,0.6967798083135598,0.903595250962243,2.339902939593514,1.7029792299606512,0.2950465007149152,0.2788712703452297,0.5913043391794894,0.2651897036576205,0.48342865065075236,0.45948501473688397,0.36176021927974805,-0.8333848638583214,-1.5211572151221726,-1.5293944885951176,-1.742239408102106,-0.8468048828912073,0.4491155405255373,1.9530217685153084,1.1920838263610696,1.8773084255955679,1.2032996168416583,0.4718157538072143,-0.7358582199948878,-1.1420471582863485,0.3176375053724884,0.42909770369092515,0.7882431273641675,-0.5585609043552424,-0.5819202578238911,-1.06759142680635,-1.782939584413055,-1.0188126758697305,-0.035469814283785595,0.4567253817399114,1.873767964116145,2.536648101339981,1.2642042272240694,-0.23301465619497047,-0.4810672717590227,-1.2587234463207844,0.4637235959509032,0.5634596167361733,0.11832408606106148,-0.571575954682446,-0.9140952922520817,-1.5722407428013054,-1.670695131379439,-1.5703399913746643,-0.1967441585678763,-0.11992438580322029,0.47318350032516665,1.1567954863172316,1.5832850556928177,0.5976404124791694,0.06228821759397968,-0.5130716001423206,0.15979091536864565,-0.3312701127129491,0.10703531205697714,0.6911268204695296,-0.36140070467484176,-0.5957952232114068,-1.3319765432320527,-1.6875327736603531,-1.9449161845720127,0.1658649040529278,1.774246944786042,1.509721042156033,1.2316627395161868,1.3973906347039782,1.1463552374065102,-0.3446053747079164,-0.42445975855431983,-0.07326171268970291,0.7133721890243763,0.748053871228777,0.6292722307598606,-0.5618581744101154,-0.9107368888432608,-2.0324243843737126,-1.2623769500998474,-0.4806733217614638,0.27668178438630403,0.872577848756851,1.5832764360216558,2.574700826142163,0.9363411441184835,0.8737209797972099,-0.051392446884463844,-0.5274102289140107,-0.7841727766561312,0.349388971190034,0.40556059979828896,0.9402788725797866,-1.0815215148247646,-0.23545498476754356,-1.5654349114530766,-1.3163923624112643,-0.9604411137105745,0.6063753619852402,1.614243457335365,2.2270793490513308,1.0085580704469876,1.5107918383339451,0.259617511044813,-0.028370582236483255,-0.40617748128326536,-0.42628404997274205,0.37169062518558726,0.3797025848942167,-0.9010066244077293,-0.5653367433694925,-1.0965351659677722,-2.1001170357989434,-1.738570102638172,-0.37793373148300835,0.8794076947479016,1.4761341580161729,1.6949400145040794,1.3638411087906985,-0.18668665623196806,-0.7641018199536487,-1.730147592356543,0.2898656456546119,0.1890204788808494,0.8929342876275489,-0.4314149916036638,-0.48524414336426736,-1.1456890068944414,-2.006290178304471,-2.3849335622072347,0.0054755218128662575,0.9260947136808018,1.036311291639446,1.9903985464731841,1.3524021447376313,0.46427764443970787,1.1219232428289891,-1.1137392506854984,-0.4780801599695068,0.004374644454334747,1.121324639874529,0.7807793570081619,-0.9150346364424611,-0.808776530957019,-1.4871890750607608,-1.8725848707906152,-1.0678134394536323,-1.1535756720860328,0.4595870902260878,1.7447163471288825,2.094628018781697,1.4575490172960557,0.5072290669633638,-0.09698217366333711,0.01019339469339392,-0.2266383888330499,-0.4090755097988448,-0.25640678728836214,-0.5239804647243309,0.3790665131727764,-0.7079654486239835,-1.7246866624014265,-1.9120362426244841,-1.3432481461379693,0.5466185537910726,1
0.010343812930810638,0.5024055150610398,0.5969980814045336,0.7863004236119945,0.9682529688909712,0.9972794884340911,0.8885859443845142,0.9354621950950472,0.6813288974129695,0.406191464789243,0.01577107487344502,-0.05777406917515779,-0.40596929394635967,-0.769058196423869,-0.7899632550092028,-1.0352864224494196,-1.069438124243041,-0.9827219399420113,-0.9168653063886303,-0.4582990278147607,-0.4082704283565294,-0.04721563724211977,0.16197303003290348,0.6212035527491805,0.8177495271365733,0.9273066466252865,0.8955631532026801,0.8314666221769531,0.8576729775732499,0.544910908277847,0.36574000365100595,-0.05068339189475026,-0.243758210683697,-0.40741510256740443,-0.7060745125778964,-0.9632999848592612,-0.9698063757729661,-1.0024756583985939,-0.8714767088927213,-0.7193124164283532,-0.4551826265603049,-0.12961496185395685,0.05148842720317834,0.33716122327276704,0.5478970558303797,0.7122376169118219,0.856680871723524,1.011472523488972,0.8327798514884257,0.8160525390402851,0.5412142811742677,0.06501406361700252,0.02765608170449973,-0.2530243069382179,-0.6993523689321774,-0.7692168369290927,-1.0343398212615362,-0.9900538849949042,-1.0864261086394194,-1.0120922184172187,-0.6680922409895709,-0.38190472556824384,-0.11539671524592052,0.10675288470043483,0.4654633596434643,0.7666879263378922,0.9022623251817277,1.0094878780518588,0.9185178185654757,1.0073175318490137,0.5961487790316625,0.5211955981883449,0.30631397166463215,-0.0652168683263817,-0.42468256230236134,-0.7115824497680928,-0.7495254384226502,-1.1121848741366942,-1.095401114866916,-0.9758005143634467,-0.6647629457791668,-0.5312854716039773,-0.395002486897691,-0.031030770538491344,0.23676559663703517,0.49828333598470886,0.8864172773860434,0.7988704248879219,1.1592667744023886,1.0527103506289894,0.9622203705876484,0.6124587938992707,0.3894360676879725,-0.03000750385119802,-0.24059110307531087,-0.42307408371535316,-0.5841598065089971,-1.0008614220576404,-1.0220799323094254,-1.0063676970151894,-1.0463305484132308,-0.6806235269039824,-0.5778522990308437,-0.24469497564039855,0.030433808693266846,0.2905979803687843,0.6291060234802144,0.8112206153069558,0.9227904797160538,0.9269747605017035,0.9806424645989125,0.9765977180678196,0.6139548247326093,0.433715992988507,-0.10118071579767507,-0.2460883410314256,-0.6474797381961181,-0.9123835853703621,-0.995995743783517,-0.8763363393672012,-0.8834075580786097,-0.8479642551567556,-0.8400213672024993,-0.4583771711105619,-0.12065429627120705,0.16837792011923047,0.2543697476236846,0.5977195264115117,0.865856950947319,1.0320382318972898,0.7759134906985649,0.9058462054896314,0.7789959696050737,0.6227041051506412,0.33115024338454907,0.02041565516321226,-0.41409822216758474,-0.790766315161025,-0.8505412669247293,-0.84852681499976,-0.8604754699172945,-0.8889213577141446,-0.7898474908835901,-0.5918465571896755,-0.4251437056168391,-0.08863477523982664,0.3920628931053298,0.4111974652773926,0.901236330150808,0.8745488127447766,1.1237809859014456,0.8448478376611454,0.9487361604938631,0.6400890990923817,0.3309128492872552,0.209978266609735,-0.012360498741662798,-0.48892428345522065,-0.8086543411476264,-0.8623186799607726,-0.9786309144882447,-0.9435567260735017,-0.8410852806778248,-0.7944698396576189,-0.3837119037286414,-0.27577443659314166,-0.03464265060069192,0.13704117513637754,0.5429962831764478,0.7548896269892491,1.0320752174424168,1.0446370512356369,0.8519504694472658,0.8703596421683791,0.7259058622746999,0.5572332755346578,0.20205807434267659,-0.11204019693748182,-0.4664309690181541,-0.6749349121447911,-0.7651952503067774,-1.1188070783588635,-1.026181707713634,-0.9840085030696112,-0.7018431392072179,-0.3824310482915049,-0.28485336919480797,-0.16340169086249015,0.32830975643830385,0.7211578952300097,0.8865445634587454,1.0027948927249797,0.9718215924822899,0.8207869238986408,0.8627654233810425,0.5165379204452405,0.5525138448354406,0.09489219755313089,-0.31992931521620355,-0.5988814310378734,-0.7739855132785348,-0.9460087952397852,-0.8838428952555631,-0.9597675239711684,-0.9454279012530489,-0.49770724269792865,-0.43381827281974683,-0.07394032956449188,0.09000164641689379,0.47506066874621067,0.7178623103278124,0.6832997981525784,1.1799366519916359,1.1245907189008144,0.8823390714230189,0.6544641185715889,0.5724990676793819,0.2705342549022528,-0.002274581861351453,-0.314946431877968,-0.5493420025181008,-0.666505421279408,-0.8918796770077533,-1.1047864725607317,-0.8237199826726782,-0.6687201168149354,-0.31460484857706983,-0.48188123426472845,-0.05134054456943103,0.01694607020380398,0.5607681814944943,0.684938421263145,1.0990962076764774,0.9137762779900785,0.8166110348141744,0.8430193663071499,0.5162173355654258,0.5475495139304059,-0.01838344225699068,-0.11046191948294282,-0.6122113215814833,-0.6907825255554444,-0.6887963879468195,-0.9338225924669485,-1.0847380493254455,-0.9391650867081824,-0.7867266343259254,-0.5219992006237222,-0.4348837473747612,0.059256727384730125,0
-0.07604181998113736,0.2855243074680748,0.4977559131443233,0.7275382452431736,1.0935836852198892,1.0012677702027994,0.9817085807507209,0.7857151474934541,0.7765072175787526,0.3831722767970205,0.061221311086184386,-0.3461999440995779,-0.4785497598548073,-0.7689719128648789,-0.7216877657757066,-0.8011394694107039,-1.114765824468565,-1.0189669519820823,-0.7673904145924659,-0.5870570553960084,-0.20341428295402297,0.04296639697589975,0.39758506499628266,0.7314198741929665,0.7263594221302098,1.0594973901916627,0.9269556812377201,1.1635382824354947,0.9733335878435313,0.5886580678600722,0.23774582704438732,-0.07764512124978634,-0.17450163475335223,-0.5407831829520606,-0.672004404041979,-0.701635706108049,-1.0725645666801713,-1.1014229653213814,-0.8530087039089316,-0.5722753500682731,-0.5327951349503415,-0.14736182328544978,0.28782866327847245,0.2754613221227276,0.7102831073574108,0.8182544180023144,0.9908248000427022,1.0665047018669278,0.9441394538264233,0.6636688524059899,0.4876182924756637,0.40452378299325453,-0.004948187325259416,-0.25007225873890404,-0.5749365704303879,-0.7303243843943998,-0.9883046065143484,-1.0765720873464812,-0.8836064963591181,-0.7200441721192055,-0.7212386531079382,-0.427126312083133,-0.09195138870755076,0.38713840102095565,0.561766811373404,0.60734976809323,0.8974533490350313,0.966649899416894,0.8682023830105059,0.879666548687925,0.6847623687265034,0.4362763161179572,0.14738672563045488,0.03383167723360912,-0.4408004512059299,-0.6537856394717685,-0.8590106747549486,-1.0203890666472604,-0.9904382155921818,-0.9295096782044983,-0.780552668840445,-0.6551855494177091,-0.3188103617719306,0.07603218753498478,0.28021624790866057,0.5854404264681882,0.805232021603001,0.9777842508876643,1.0542537803303322,0.9524723206356052,0.762000673218069,0.536881212234309,0.5061987808695193,0.19033272239837984,-0.12318839393487792,-0.3913192156934009,-0.7299217110497256,-0.9526333821539502,-1.0835700795907026,-1.1001727746504872,-0.7855357593389491,-0.7890729366552373,-0.3999673589354941,-0.24384452356076122,0.008004625060212225,0.2600953511857374,0.5709950863294948,0.974605451454387,0.8515552599659391,1.2114956048177028,0.8646292547736525,0.8862309882837156,0.5854409720231977,0.30204821324477554,-0.08930060099484238,-0.27170378323592637,-0.6535715059356119,-0.932848802593916,-0.9100987352158684,-1.059068583492134,-0.8099742893330761,-0.7722625558529133,-0.5170080930798292,-0.5068373964225581,-0.13721052314825186,-0.1112427988067346,0.4105688679030868,0.696601146015967,0.8876695351323678,0.9741722998914034,1.0021855299837263,0.650734339621276,0.7903132762253762,0.5860868954920238,0.39566702522369046,-0.0009676707899752002,-0.34717787816871515,-0.489471909225597,-1.046969413678537,-1.0001848505833304,-1.0764019206756088,-0.9634284479270542,-1.05265085438668,-0.49784695580390015,-0.3945128209091857,-0.043749076768571246,0.24746506302868618,0.6317022553442753,0.5535634375924181,0.9179837447409637,1.1058556010624239,0.97573069393883,0.795018801063568,0.6533771011215652,0.4331453682990335,0.1160198594163415,-0.1285887893079956,-0.2536053992773708,-0.7184892216555344,-0.901901600955177,-0.9239093232054952,-1.0158707252253392,-1.068963251148762,-0.7946471653082716,-0.5791513784477603,-0.20063007650285547,-0.0972152398202681,0.39642985932220465,0.5594791539980701,0.6777341544388631,0.8051669066065769,1.1918275416198043,0.9538957793269836,0.9467846152003242,0.4879408056409815,0.6681996283922647,0.20263214043798347,-0.2136688837841505,-0.5030561542652214,-0.6403062998568365,-0.8224275717048886,-0.9672764105711547,-0.9901498991717153,-0.8506449197913954,-0.913928806387848,-0.542580737118009,-0.3898423263519852,0.13608798035470415,0.30195043383741893,0.47265271416035126,0.7534029207618604,0.9749118880905006,0.9792980844141569,0.8313743416173421,0.6407491310455341,0.6073593801517532,0.2760273608223489,0.012033405731274198,-0.2778330037096384,-0.4947363375814787,-0.6799964424401846,-0.9074076829417659,-1.027572527784523,-0.9759327871359927,-0.9061884240881583,-0.8510066465768191,-0.3295544888428116,-0.06048041091260119,0.34965769651942935,0.6667990366195191,0.5691492979882169,0.8387247353243108,1.2295631006325862,0.9914712112503362,0.9464796932922929,0.6125780974477165,0.552771769456704,0.45505852243672207,0.09082110429267846,-0.3951026336492313,-0.6395977381055351,-0.924326020468015,-1.0338063115455884,-1.1908421155483846,-0.9684582354098977,-0.681770505170723,-0.5942673296189034,-0.2329079319441954,0.03169619420814131,0.1704751315654399,0.4295025997159285,0.6676399953946767,0.7350454333497771,0.9944707982714942,0.6950828989531919,0.9492872913060405,0.720954206259027,0.5195835551291589,0.29382649066345495,-0.09342821876737334,-0.24127296583038801,-0.5965581640065591,-0.9288468882088778,-0.9936584858251158,-1.2245177915039658,-1.0262637818614906,-0.826627962123709,-0.5146348742522961,-0.37323401390085964,-0.124626401393446,0
-0.00598261435299037,0.34755393148009456,0.5983519409670666,0.588975143485192,0.8239203638048335,1.0913296873080327,0.9566737227203725,0.8007610732501346,0.5228953435760466,0.29645650746829244,-0.08887218639492474,-0.198252934238787,-0.5322833265377753,-0.8104249017856703,-0.8969580828941919,-0.9491322755256252,-0.781917981770943,-1.0579399701503038,-0.6238203467497689,-0.40814310975507406,-0.3030652144603644,0.09595234134305959,0.3237685060069953,0.6483793800701437,0.9836946745042157,1.0205368912070543,1.050681759993082,0.9056590655251529,0.6628303247261589,0.579119280394655,0.454764986983783,-0.11487530894129278,-0.36737342177847476,-0.525116132675604,-0.8631565711019011,-1.0013109477491344,-1.0378861309813765,-1.1149708813645876,-0.969676911983831,-0.6164085195347719,-0.5694860841948621,-0.3106115106108581,0.08782179920798397,0.5119446562227494,0.6670591304138119,0.8258066195506311,0.9828450206971326,0.8209555295225939,0.9715291684151174,0.8030345957575399,0.4968120588894394,0.36245693614044955,-0.15059108661297313,-0.221313272172032,-0.584516734889167,-0.8448912502064092,-0.9506773610574474,-1.010547399250832,-0.8379479783021512,-0.9404494859108625,-0.7060624459429339,-0.2659015417335122,-0.13518223940284604,0.31520924825584995,0.675396864157449,0.6995789483856554,0.9748878608515119,0.8758685468579516,1.0610026684176799,0.9100881389760745,0.7610699409031622,0.4078823612761336,0.02201652081191871,-0.06298247112632076,-0.6107704548438239,-0.6904877943260485,-0.7590160168852788,-0.9506976080232232,-0.8035544243499703,-0.8335338225560972,-0.8539181603629243,-0.566530897222923,-0.3029349813011101,-0.1582176763346137,0.20415801939822925,0.5131861445100764,0.5849062712447718,0.9407940846394368,0.9734815043636472,0.8025979914793698,0.8935554900550119,0.7303400195708925,0.4271335874823723,0.08090086008037617,-0.1289806471934451,-0.4044175324319991,-0.6830257557151679,-0.9726069654208713,-0.9578692620597807,-0.8716897099093893,-0.9664145340551553,-0.5299645171665792,-0.5580163592551213,-0.2219152391886825,0.008380186283820992,0.3918589145327778,0.4555883527647423,0.7781773932820859,0.8507641479090636,1.0133547574589667,1.0481347350715076,0.8758366099300462,0.36280016536280735,0.538311136790182,0.06736947077975805,-0.3395143990101026,-0.5220301143999173,-0.7470721103669027,-0.9887434747327697,-0.975734606074351,-1.039156369707605,-0.9127009266311978,-0.7553792247890146,-0.5820162349457335,-0.1362406501398422,0.2093542408130045,0.4902374655793964,0.7687438364770223,0.9046987483636775,0.9251365911238804,1.0794926592516785,0.7863068490534237,0.6746239543659304,0.4413228991566954,0.36987009087473643,0.0564373746963393,-0.2853736477928918,-0.4927731149275145,-0.8991642694597881,-0.913830485534518,-1.012338365508054,-0.8752880575554317,-0.8443039964189833,-0.6683048108692802,-0.31544097908466207,0.011988170834658654,0.15832142103801658,0.4993456987213426,0.6339143877156576,0.6569455264446885,1.0112837381333106,1.0464198742363624,0.9163524212860708,0.5188099409117071,0.43735462547202647,-0.03370991363646772,0.023662433164158808,-0.5130355978076796,-0.5332123841557965,-0.7585472391588626,-1.0599464168641328,-1.1116671839557262,-0.9010077161756398,-0.8729607252486765,-0.559013770992247,-0.34648067012736267,-0.1781158414465653,0.07515110913421441,0.5919306600575243,0.7323725468973001,0.8807357561228566,1.06797507273833,1.087231609273772,0.8258797313910945,0.6246928744108083,0.45444444290726294,-0.022385879368686898,-0.1658095568938599,-0.4172509712974551,-0.6457430918453732,-1.0838210106276398,-1.0616648655917926,-1.079064100274285,-0.8967629327530658,-0.6916839931030319,-0.35578222511198554,-0.27465248855950786,0.025871496053532256,0.4844990328286256,0.6594682158812996,0.9595467242825548,0.9888490682449056,0.8841092607984108,0.8153771620428387,0.6560847663127027,0.6661712849245504,0.45296385380609583,0.2227776908563174,-0.17755395172848443,-0.42145904854551197,-0.8226927258825444,-1.037700184711996,-0.9105183395668032,-0.9366410657216329,-0.8615202899281068,-0.648014163150208,-0.4064305577259485,-0.022442611176025445,0.2803228556430653,0.49317114120579303,0.7713315984697858,0.9236709826046712,0.9322921677421101,1.0711827402998737,0.7826090961516915,0.8700802478467629,0.41829061232242315,0.29044481364028646,-0.12235687256029029,-0.27876527318993427,-0.6033586240414843,-0.9707115870349219,-0.90662003441877,-1.0576130003530086,-0.8718615958625865,-0.8326490042903234,-0.5902684234894745,-0.4652887264422898,-0.13456196902719472,0.17929207691259424,0.591123513880829,0.9074961598603711,0.8262344530196943,1.0989225894577048,0.7685615968383304,0.770726800268173,0.617888267068462,0.3371886995356026,0.029766023389883378,-0.07200778638747896,-0.42583690936864976,-0.6208122053412692,-0.7840869349151216,-0.9433256822932746,-0.9326123712139147,-0.942997966438501,-0.9072276603609445,-0.4634808171259831,-0.35710912432479125,-0.09355962987624554,0
0.6792914348089141,0.8791937643864073,1.1133602701597023,1.9422655647364535,1.7850180821474626,-0.2818820298542335,0.7655671313653204,-0.152753703522554,0.40509713161277067,0.9771245984174316,0.8463189878490983,-0.01825626165372085,-0.042576095017801796,-1.2555393956059904,-1.2095978137475547,-0.9053692311319981,-1.2093533414808468,0.8461727741965419,1.2867720339620887,1.8275110215329002,1.5612655486643345,0.8508865192276034,0.8406724052733244,-1.0157088433371748,-1.1568780289657745,-0.9288577666659992,0.8699004434519007,-0.10066393595122936,-0.14219925559303243,-1.0193380080143566,-2.0379850532360555,-1.3095461051105313,-1.2910089116108285,-0.3453205815650218,0.983895800124856,1.968605705392951,1.2459108091222468,1.6895614336193856,1.2223745730175306,-0.8505151906826094,-0.22985923233105482,-0.33386807475078706,0.5310222589321939,-0.2393208843684549,0.9519231191238128,-1.3013952163453881,-1.3752427298410073,-1.5082508928917888,-1.9513880864412565,-1.2891609204832524,0.3375708613610984,1.2661573874976737,1.7382538085959547,2.02414173864888,0.764743099238066,0.36808881524798,-0.539356214120507,-0.7599930543986477,-0.18016658341179612,0.04632375693406493,0.10808312930875391,0.5037539597422808,-0.9344531374576953,-1.8291725103828664,-1.7443763161168986,-1.3256040236545747,-1.042462823005073,0.5147019105325373,1.335964810973039,1.668768039347139,1.7456034670604461,0.7197611026949495,0.5769571368425456,-0.3658403444396347,0.6444548592942594,-0.11853924394439777,-0.02443918589847205,0.49448958338221183,0.33331707266059674,-1.801098018722824,-1.7699380449183126,-1.9905309725853875,-0.9848576356582192,0.005008961749698674,1.7289737659681221,1.6309376036050585,2.358834770296272,0.9541461984208727,0.8119648336245316,-0.10650673192536635,0.5046006946576317,-0.8503556943286383,-0.3383400779841415,1.2758213088244226,-0.32962100989304866,-0.986326846151434,-1.8207010732913764,-1.180617197934513,-2.1320357796349034,-0.6526798403556255,0.31621129731778175,1.8959757849709913,1.476574371975071,1.7053554637995745,0.22179332375128835,1.2158802684974102,-0.4522811922169978,-0.2913246080881965,0.8651644485920483,0.04199192433133947,1.1197459814519095,-0.41402807741945363,-0.6261303540414421,-1.8811383029957052,-2.413302946460747,-1.0199802522318309,0.09349865744593333,0.2095172750916171,1.4546905035194853,2.3257784116579274,1.553161735351056,0.29984031223883284,-0.43621685711924557,0.6051134406724177,-0.9048730034735581,0.15180768136782458,-0.36333971495200146,0.7948613287241628,-0.501009619235005,-1.1640152175680143,-0.34095277607566365,-1.9049560008420507,0.006827810774539311,0.031087085841706746,1.1105211987096817,3.054372352198677,1.5142522942852317,0.2747937438044409,0.34925188441364863,-0.3724232225661008,-0.15178039061701554,-0.10458616583067279,1.4034786586332644,0.6108529493081096,-0.6163920630217128,-0.7451280094279884,-1.8975340863264516,-1.8822726243923698,-1.832938348502179,0.6045370533949708,0.3182127389053744,1.8490891490194041,1.5931004652630607,0.8036326942550718,0.7502498185632641,0.16333438169274053,-0.08069690011796804,-1.5546983581662448,-0.5055745939131316,0.8391193641950321,-0.24096523531066638,-0.24725187091684725,-1.740708714044615,-1.3056421697319278,-1.2195052020446662,-0.6903281890680872,0.5162784061767913,1.838233214604025,1.0981029342379678,1.277106755235477,1.5604681515821288,0.9138337819906663,-0.5580097227796874,-0.7322850373468814,-0.4379550078866714,-0.5589587011261925,-0.27569542459180996,-0.5866347856649569,-0.798474404016332,-1.2474210226244584,-1.538103760380187,-1.7595880996601836,-0.9058986046348989,0.5108529557836365,0.6297107146440452,2.238135969182437,2.1404118137500947,0.4946110915959058,-0.12030833051556633,0.2891710825324455,-0.35723214602583486,0.33190999214259803,0.2891756145835566,1.0642085042227447,0.03674732377526391,-0.6881515599924588,-1.3116442135492692,-2.012841592052236,-1.458896995963394,0.15816977673412963,0.9306665609715605,1.0194141590679533,2.661951143201861,1.7421381936012903,0.516260975053356,-0.27420449720199874,-0.2696707931299293,0.07735308100658969,-0.8350933992628989,1.4251835766378473,-0.25748814828142763,-0.49840062962522697,-1.2356688185631692,-0.7269738215450379,-1.6522815834771858,-0.07320649907789767,0.4298167777763332,0.7463349963991537,1.8026384579397827,1.5355431220586215,0.4199442034999671,0.3871538750866029,-0.2750034350576698,-0.05711745875467922,0.05888912063237521,-0.029845097976149426,0.71665202603531,-0.3911088892855913,-2.357236671831563,-1.4333927002658322,-2.035452566757889,-1.1866527410204655,0.550413659761813,1.677774893068452,1.422745511911425,1.3415825905783483,1.6751809215004183,0.4663123711803361,0.15887672432337044,-0.6904405476086518,-0.11824257288440376,-0.2941388132253186,0.9524687126998228,-0.0741505993825825,-0.018172628204415897,-1.7440800080229655,-1.2808557925058073,-2.1683320346765425,-0.9256947386670358,0.511600486673961,1
-0.5915280923671945,0.9299015146061651,2.1998465505201152,2.0697936843465286,1.1192878377004383,-0.13867939188949985,0.10195561009337212,-0.35065138583507727,-1.2720060620366365,0.6349036940540331,0.34789374956038116,0.6382371608416563,-1.1990604265349116,-2.9711911871394503,-1.615298247028782,-1.3595251346813533,-1.5092408602976886,-0.04022756472526445,2.7553268650787253,1.6056103960639911,1.8631986624310437,0.48207149675573246,-0.9662417002677735,-0.4176141532880958,-0.4285086306739341,-0.16215185016739836,0.27800789373074763,0.4181889458054189,-0.28335096597737885,-1.593982529925749,-1.351705087135096,-2.709970601549592,-2.2524561561442367,0.1431372043049545,1.1209702823224088,1.5795219804368246,1.0276746785119346,0.8991467896157047,0.36607443928760375,-0.935400990589078,-0.738523050906587,0.14475820051621655,0.895059650716732,0.15929134556569538,0.5156981834600742,-1.454477848424587,-0.9233766393959344,-2.1273731382532093,-1.4545468546198588,-0.9913363553745883,0.8866600479377534,0.7900596033321745,2.0490878726692956,1.4550437512678003,0.8828267069472449,0.11636554377087287,-0.708891362229656,-0.3423777944372795,-0.0691113802276976,0.4163264747342454,0.3747376027365759,0.3200875256473181,-0.34564710241623386,-2.0230308351568347,-1.3240294528455083,-1.9708862067737056,-0.15509426413916966,0.9737744388458935,0.5496485271910856,1.8013297994660804,1.1485912238612954,0.2720425381458208,0.638414628499383,-0.6868497368139365,-0.6467772454547975,0.14969573292397537,0.7031368778332983,0.1500139529886615,0.23446137676271406,-0.8462085354481657,-2.7605483806768705,-1.9498734817959562,-1.3372041918301085,0.2396804767147075,-0.2561253860327941,2.9596448544013114,1.9369557682582623,1.186134768389061,0.9395077542814966,0.9509887804125865,0.075031317610111,0.36255828531438583,0.308933793127962,0.28924728981175507,-0.20088618515232232,-1.0644811629707742,-1.726346330391198,-2.4301181583728666,-1.543242698364853,-1.5062388351076494,0.544480470279906,1.359552689197603,1.8318833523342373,1.2366533892329412,2.345831595530175,0.7589676992489662,-0.9547562799325048,-0.17927230681743095,-0.26621580230188446,-0.1719115518697628,-0.3839812255793661,0.007815855029153718,-1.3026695634868588,-1.1108844709034538,-1.23839361662316,-0.540320234896414,-0.6526464260828848,1.1051429516007416,1.9244467712949915,1.4883098433374917,0.8672162812563136,1.3022081460188446,-0.023706068435990893,-0.05102484653910161,-0.5924449744860928,-0.428235264688971,0.08428383464891548,0.0754433126070237,-1.029557816539511,-1.2580246642779231,-2.569651524923718,-2.16824337420879,-0.53200452211629,0.528348303184748,1.0313390448086979,1.2264025693499012,1.0810957071530627,0.7753453229814078,0.5305517361731382,0.1780680356895636,-0.5835941792249302,-0.61453348215918,0.4296281694640488,-0.079282455422783,-0.338036068589405,-0.14476336522139688,-1.0841614599600482,-1.679428547015167,-2.013677493775129,-0.3433239244727112,1.1952336918882485,1.3174901401395678,2.430397221194732,2.0292119253005705,1.4832915831852476,0.11561002641556364,-0.06631431659221887,0.4635048632697714,0.3355452314559017,0.10972495078898348,-0.003433172270201096,-0.22944641918503322,-1.7569770774033315,-1.7430721784932444,-1.1368664409273264,-2.151910067736911,0.7672410508972501,1.6174702515058383,1.455257692127217,1.943138134747063,1.1132702298833947,0.9637190802912673,0.2705033253912459,-1.060377366275594,0.18178294381066978,0.14077485407415674,0.4014264517542777,-0.32707441363478795,0.22264336744690238,-0.8628083705901478,-2.1247257581878567,-2.1726122764774596,-0.8567413619833836,0.6662735312536587,1.4978209151918702,2.3849821155250144,1.8926790353333853,1.2921859233163793,0.24233744946404187,-1.0271343949956344,-0.39355561610433587,0.567832139121116,0.3095668472216206,0.5375999942944809,-0.3676666479735505,-1.4768853702229774,-1.6564695149391178,-1.580761002372053,-1.5551212872328481,-0.3443086654741921,0.39772852526176045,2.167842121755888,1.578171052095454,1.979480032515832,1.2618217384013006,-0.17797698866288808,-0.8732330881686455,-1.2243559074387926,-0.554611567941271,-0.31790869055435944,0.8266888200327847,-0.43953551951737535,-1.0582999979067482,-2.8356094353570267,-2.2072028775824695,-0.42392025803156874,0.36984009923706934,1.1536747881593297,2.0177059031884417,2.412696385983985,0.8514582141835564,0.24297739167951685,-0.18975635061694512,0.8607265061530469,-1.087465401376295,0.6373178579252897,0.2750839055106209,0.20447611393328802,-1.13608768743729,-1.5222016896721657,-1.4027104134081465,0.17873710730313763,-0.0450041135070085,0.23987224747916852,1.2934271320109931,1.5281331220094492,0.4850176942264498,0.48638007126279464,0.32940300406077166,-0.9971262260336222,0.28065254462951633,0.3557356734635886,-0.0067746563014293715,0.1500734273248,0.45043700774861606,-0.744922459677273,-1.667050893362079,-1.8039816585229342,-1.0179786069284606,-0.2558817789711841,1
0.0042782902124320074,0.34761593247474487,0.6359328412939269,0.7822667396690736,0.8886266321064578,1.0173090191763747,0.8104910086281973,0.8321020039768913,0.41159675427036796,0.23685096125222718,-0.06931090734040106,-0.08338968812332859,-0.47104138688273817,-0.8399710150087722,-0.841039136032861,-0.8866638906742471,-0.9403892193772001,-0.9256226410432412,-0.7165097892378844,-0.415303612542308,-0.2720805242889599,0.07861543821023904,0.3438125264801137,0.46846893676302126,0.9244383912281907,1.1657034544433238,0.9124414605456188,1.044958021009247,0.7270366132424324,0.6132448829564022,0.48490539887636913,-0.0142024218215391,-0.26333312639999257,-0.7178932059498184,-0.831111527011798,-1.1126858352376838,-0.952608460821059,-0.895245385050415,-0.8944282160192747,-0.6581626144878236,-0.47132215149681045,-0.07676976057393074,0.1637704906738933,0.24018277039140892,0.7807493930227829,0.8333104479038775,0.8513711938247315,0.9516328755741588,0.7318516381829702,0.6397021614932712,0.5520378673105504,0.2845356535948645,-0.007197593292152433,-0.33378318472103913,-0.6692526137958933,-0.8166819051646484,-0.9924107422154047,-1.162399082477256,-1.0372177670449818,-0.7438274500468587,-0.4709811068227796,-0.3044043265288913,0.0787410302147813,0.2336948015361866,0.679690874326832,0.9452072951126768,0.7334046783903625,1.0133871057052206,0.9941723575196532,0.8477353588189879,0.7629576665022793,0.4765520753438608,0.11457997032943165,-0.1159681881049694,-0.2839706816590394,-0.6404989354135273,-0.7904387287016625,-0.9975926916384359,-0.9531822878137901,-1.0569661908625925,-0.8385003714723459,-0.5795290960646597,-0.4258315031093203,-0.08302167188922821,0.32950908790405375,0.5822454268368656,0.8691648639961363,0.8759936359957562,1.0041489114294755,0.9027006405221444,0.9237470584382113,0.7778273567043212,0.4527626223211637,0.21942710522893147,-0.18487487607984437,-0.39188018498015065,-0.7062243384258907,-0.992638547035972,-0.9608571997410381,-1.090767444370988,-0.6728387330370912,-0.7731672669573558,-0.4409494803116831,-0.2263972624752556,-0.04773259651913597,0.1796795279342946,0.704711917535683,0.987715665840864,0.8864958972228845,0.8341516707137787,0.9161737242784544,0.7175242866947177,0.5349345334624873,0.3951415414699226,0.03279517197738738,-0.34481524084900433,-0.47889282767289193,-0.6980038581095929,-0.9557643516420758,-0.9817346207167525,-0.9263589526378768,-0.8296544142638558,-0.6826899025169529,-0.29549049414923867,-0.09255621585986201,0.1057563955115974,0.3942821992018687,0.6309426761998315,0.9354768220849717,0.9161343849453801,0.9530363638882788,1.0278608418491986,0.7838542888239173,0.6575961690111386,0.3416704722960396,-0.1555086596246746,-0.34431747732146145,-0.50097119745184,-0.9334535977336905,-0.9067189154847484,-1.0037445700396121,-1.1354551421561618,-0.8208156427118702,-0.7135573236409254,-0.4862970091524037,-0.07471467830220135,0.03207064659739606,0.438024236598092,0.9948758763300876,0.9717738675346768,,1.125945932620939,0.7909413842996849,0.6583965973735966,0.35755442748674515,0.21373285023524252,0.02355528460845316,-0.5043307628518566,-0.864797048842695,-0.7440375360753351,-0.8145073315017585,-1.1978967354704249,-0.8900393036696292,-0.7658777863188406,-0.6480097656968432,-0.4376334777135941,0.09917503454465364,0.3161049641923798,0.5947048809507366,0.7263513862470425,0.855853817369274,0.7528913347015567,0.9470845786320397,0.9970168414726976,0.5697273030969291,0.25218867016920055,0.15687413424697083,-0.12611686252399598,-0.5310301645477881,-0.7486425591571002,-0.8637554286555174,-1.001084285473831,-0.8912248414165401,-0.6630273706015652,-0.9106748065988759,-0.38247775280078566,-0.21462997042036716,0.21444883976986978,0.44196728206731883,0.6359261680218402,0.9087838674078609,0.9205606908254422,0.9223907804592524,1.0297763090804544,0.7268031463396453,0.6642033606128598,0.3371789298061449,-0.1951026883945783,-0.3193027300071024,-0.5042590867965484,-0.8052911590080252,-1.1767318142138288,-0.8634512600259425,-0.9614716358184119,-0.8278907982352155,-0.7340789264313313,-0.3856001371571033,0.032657717297288724,0.07731699879863393,0.6054503765074655,0.7266077178026937,0.7853214525585073,1.1996482047046728,1.034690296797453,0.9897064699149217,0.7377558821444987,0.4581102417660749,0.2786458094283921,0.12030489563065845,-0.3650701527159459,-0.6026412260061073,-0.6656031440206301,-0.978722682101042,-0.9487932915528254,-0.8722412172699536,-0.8524596680514624,-0.598826762708286,-0.3034215531726513,-0.11572026523887122,0.30673245702170204,0.45075465751102944,0.6722496931837731,0.7540475221119363,0.9408915406018309,0.9039790684238784,0.8500583447519044,0.7749653758785884,0.29987214314216454,-0.009342227090069433,-0.18821559926638698,-0.35830709023719787,-0.6298662503998115,-0.9296404368183655,-0.8529465583948819,-1.0642296823407862,-0.8897993392015613,-0.8248069542837873,-0.6561398703074284,-0.3587045898581525,0.07340003848135286,0
-0.6679312020843067,1.4183514218115065,2.3305192121036664,2.9653972075764994,0.511833733885115,0.6981837386123155,-0.4257388678904911,0.03133735057792575,-0.8470930385370501,-0.38779610695350797,-0.027927245088014696,0.07649355968416241,-0.9719658003826871,-1.0533121085847401,-1.2413928670724172,-1.2055182023996618,0.14548877333597143,0.6569355229357102,0.7692696380486909,2.4401039599100627,1.195141056439937,1.2626106602827094,0.865776857436358,-0.10414102452494348,-1.0437857571132063,-0.4213188140881084,0.9967005449265116,0.20149346716119237,-0.16850572287939267,-0.5825672378702624,-1.2466360518759037,-1.5958848176956502,-1.3316116131123692,-0.38278726591200807,1.2964095589004019,1.8850044285077392,1.5967489305805758,1.7941584164493127,0.43293075556596383,-0.563285093469218,-0.748494071346643,-0.6707773867270064,0.04520196027028023,0.9858708610630672,-0.2650935842132294,-0.40320993262180194,-1.5814469327664469,-1.8555534515251877,-2.3632402689664698,-0.9777292608330024,0.12960035314335533,1.4974213995199812,1.8469251805160651,0.9956014204400443,1.5040785679738482,0.3134440104614754,-0.18685805139385625,-0.3399194881765132,-0.29666599277789674,0.4046075204052438,0.5702792478544358,-0.9523575948315774,-1.076781829112966,-1.6251926594447286,-1.6303304002937546,-0.7810624902552155,-0.8348926155064283,0.41492412308553817,1.2490399176990625,1.3540763811491048,1.209246032985322,1.0368262771074939,-0.5639292845322925,-0.1461029689187754,-1.0945398959049404,-0.1688207352996743,0.19559735457509703,1.0582680824507573,-0.486125048448256,-2.21231810315567,-2.67088717424178,-1.6681252068691117,-0.7493977142593048,0.18772792881362274,1.1400681950547569,2.2662697987952836,1.4016471104425916,1.5591516444436282,-0.4672835464412852,-0.673312162462759,-1.2638627021499986,-0.24927091325632034,0.22045817226259953,0.41706091260848915,0.06795321329369586,-1.115201832519367,-1.477959702748057,-2.5035635105042493,-0.8236924854562162,-0.8157180829434565,0.204579148686205,2.1721881574408153,1.1372924363662786,0.9349256172269529,0.25929124800564063,0.04497405830906882,-0.11666921507134473,0.07413138352803678,1.3237849279142617,-0.7893879156164377,0.5904226045448098,-0.48685777663658886,-1.2551870203964586,-1.9046835470429946,-2.189669559292366,-0.38501501020041284,0.19469562046111827,0.8790581355334238,2.2837275392173413,0.9691344482400364,0.587749694287288,-0.5915360529664857,-0.4871612763636615,-0.2881594585425941,-0.12997767960596207,0.2560779241020661,-0.3365196936380702,0.5390313776090332,-0.3776340540113376,-0.8865751192197324,-2.671780019684494,-1.4524742335749592,-1.461342766213491,0.027791416770120064,1.4944598768203226,1.7808315270163344,1.1690274930264088,0.965116024044274,-0.557475167271329,0.28907888796654935,-0.43797032123207136,0.5214877029608749,0.03244050698286066,0.07069703568685026,-0.461003142477727,-0.369314444593378,-1.85243475290717,-1.4361179869333047,-1.5689441920534128,-1.4370038581538505,0.3787480126012522,0.9157528658409115,1.771791538042543,0.7876354127042218,1.1144127174708192,-0.08254946702662644,-0.4488081638745945,0.08435728799801773,0.5938017299593451,0.35029262879926404,-0.1647619037809157,-1.2357087041279675,-1.4547212449478122,-1.9800488441351287,-1.6316112735463049,-1.2288565827232842,0.34396648602570673,0.7497915065189139,1.6566194166159842,2.2634364424096027,1.2826089734077148,0.3187051252276435,-0.5218104669613133,-0.6769577030415779,-0.5371548893973925,-0.026914651995669114,0.737843085867385,-0.07393259879601453,-1.3263117018041308,-0.4987546340115441,-1.5948575806287917,-2.208778673278928,-0.8848295101148714,0.5044653996222148,2.2300140398674473,1.2043594740114578,1.9857395339209325,1.5071446239260973,-0.2354174033784619,-0.471241839320256,-0.8138609742177703,-0.06394330137336926,0.317033324312478,0.6158798090237928,0.33679924515973947,-1.3360274782628785,-2.5784600150290595,-1.745907113526501,-1.080508662517806,-0.10174419920333701,0.7041235225002298,1.670595712805807,2.483121335065595,1.443969344433995,0.31076360062930425,-0.3875529148500141,-0.453934900733836,0.636963012343196,0.08975661380902615,0.3591115496346166,-0.10370277916611917,0.052043865590133964,-0.2731836325804047,-1.5000924061737693,-1.5668332110811256,-0.8490687296675948,-0.9657003513470965,1.599852859644537,1.8023679318863022,1.8089685082464402,0.6062483489102293,0.016064050861936324,-0.4915672782341842,0.17548318055257006,-0.22716718746832887,1.3370365115857845,0.5479162393976714,-0.7167510791566676,-0.8716745570659062,-1.8235567353211484,-2.855606938050906,-0.5779825231618881,-0.09745093709804226,0.930508705444079,1.5880088031721968,1.0638313918551572,1.141030710763739,1.0723155545055196,-0.5626215517413522,-1.6258948246206315,-0.3571417847862429,0.04096948590765023,0.42812371289144413,0.5850975677509918,-0.029920989956296162,-0.9823114638082452,-1.0736770267677982,-2.4446248904490995,-0.8039922349155952,0.31326918166843887,1
0.3070564835990533,-0.07102229699210083,1.3510720350266472,1.2808064709639604,0.8011273220240228,0.7799250404513687,-0.2112352619918788,-1.0551568401118627,-0.30345568140073265,0.5144576047038689,0.25018765872835,-0.28532643873162555,-0.4858155277442452,-0.5737430358219114,-1.5241277597221152,-0.8548362165064902,-0.9527121554269142,0.4448411526460084,1.3634420009509334,1.8177552451747385,1.7179789774333938,0.34791684991253524,0.40257609191554417,-1.1464279993677513,-0.9635846817842223,1.1056003197534026,0.08026794174450586,0.6508144854757016,0.6408527058630025,-2.119207485341305,-1.0316743928382106,-1.4108129207587452,-0.4070787870356164,-0.817214623878143,1.593087474732037,1.2385124471724973,2.252787838027799,1.2350917420755225,0.882832216348425,-0.11301941464944477,-1.288709513988335,-1.7416789800440218,0.2863647355638692,0.23714120307929673,0.3365644820121718,-0.6235245460526408,-0.24406356859382994,-1.6101303669753166,-1.8316935267651766,-0.6987786130813005,0.012115644605183523,1.2737425445591273,1.1265446302704627,1.5905048819862642,0.7230532479344893,-0.35307582233386214,0.7018131240537215,-0.8771959964540268,-0.03430515744581808,-0.10569766694349786,0.48100476533008213,-0.7161023163932587,-0.38722299847214264,-0.4796410810635132,-2.178185321691229,-0.7692335618781181,-0.6399618804058822,1.4168006070325019,2.599556466070333,1.6379876703471463,0.6227062400941275,1.125467360831553,0.07519706712193838,-0.10911458260640644,-0.41351130181795537,-0.33039814640892085,0.9405160951675772,0.3807332432717413,-1.0705024131637746,-0.768258754828764,-1.4283584218279048,-1.8477894622042341,-0.24637652503309815,-0.30908658117363585,0.9717898930768409,2.069464044026549,1.7098241959765181,0.4194847892509973,0.44062358256863826,-0.42803314197634224,0.06815611777404107,-0.036239090923854314,0.2908426074194662,-0.16411541536429664,-0.07800111710687449,-0.16637462010717646,-1.7711074528121349,-1.771115287745232,-1.9735299988468462,-1.2558263670202905,0.4065926857133743,1.4646185756574432,2.7553471727571908,1.269988982319833,0.7823167766229819,-0.5461270098266526,-0.026365022436686425,-0.09665896085423978,0.7819846080124915,0.8911393872382986,0.46175814440374285,-0.4433282401448234,-0.8596452270070416,-1.6503042139819364,-1.2585859572693896,-0.8141616825209046,-0.37466076487321076,0.13646325634129752,2.2749133130840535,2.016335909301077,1.0933572246664165,0.7688844871826936,-0.10002335317700323,0.2903002412147663,-1.1462970844746425,-0.017188514684590345,1.1685359796343149,0.4190532080356783,0.38885552102626747,-1.8640058065344638,-1.1893005729202244,-1.1021074512469378,-1.7083244139191445,0.07870189827925902,1.1740128749050893,0.925506709504675,1.4574963196558488,1.3985710163413678,0.012830960588122498,-0.1649882321455855,-0.21064317012011968,-0.04385897473617116,-0.05688466148183219,0.6618920173320907,-0.8724266299217995,-0.8031073411858243,-0.8049760039838878,-1.9821023280615007,-1.7413786039699064,-0.08626413882035183,0.7456209267880511,1.8780306140508018,1.7740894190490104,0.1886930551658772,1.24138187232636,0.998001654389025,0.2820103369229183,-2.0130176434306533,0.3373923691741971,0.1269690993965667,-0.32128363081212497,-0.28735781525276627,-1.1861700138800826,-1.4171138186712273,-1.656849905389726,-1.616689195598759,-0.2883008883714928,0.6873038639917506,0.8268984116702319,0.9856203988342165,1.0061620314876345,1.0606009337255653,-0.48861678584312207,-0.7390573920604842,-0.7024916662578315,0.2588570283934559,0.9496398338002908,1.0383529200544157,-0.5087254787526718,-1.3128424092232185,-2.026576729828145,-1.6935902837678487,-0.349317500969108,0.2915845421764661,1.2965767696350516,1.7457420657656804,1.202305118789221,0.7699117809011501,-0.9307933152365776,-0.05806708838090813,0.8801795689551423,-0.23823453841475004,0.5222468839847785,0.7118429701056999,0.4318151460082468,-1.0941401903221446,-2.4964561097604223,-1.6016687484639984,-1.1629630821749128,-0.39928623038385924,0.8007040848125815,1.6800598854827056,1.9062799269413961,1.4130071150726993,0.38860498338028215,0.05468541119095932,-0.5115241460324016,0.1396057821955359,-0.13231444916612567,0.4055378179697518,-0.6744152847565825,-0.6824030478594221,-0.9693578993877529,-2.242266364243498,-1.7682699011488805,-2.069994921209817,-0.45758401122021836,0.6740401494451774,1.7861602492741997,1.7615019891124342,0.9339516629819831,0.016995798906793064,-0.47560568415697135,0.022694563036297744,0.06862265427474425,0.1287335523782045,0.9791347775107822,0.8960777713392485,-1.430272635556763,-1.2364641391376847,-0.21347089929770147,-1.2376152226936856,-0.39130089012590596,0.636038076547616,1.7503977317677155,2.1322897594763175,0.760455843456866,0.638183352969099,-1.1717604690988055,-0.4646684748059747,-0.6949330778068163,0.2814370524891616,-0.4678482588864233,-0.03532040923582369,0.13454822918840564,-1.449862942152331,-2.6239106095200957,-1.5563734234779498,-1.3495476387006085,-0.0929427180364806,1
0.010720796204013366,0.26631327549719225,0.6319057024534603,0.7805374762641109,0.9565522717377356,0.8360504358348269,1.1587310755719529,0.8367100050240736,0.728511442135714,0.3208209725739146,0.1441086678230041,-0.3184093387211082,-0.42723278465370357,-0.749363521125722,-0.8872266899838398,-0.9157319355978892,-1.1144918061139655,-0.9752008012552623,-0.6940260229711447,-0.29563111840190653,-0.2389641739888425,0.13474235767684975,0.3588346839549088,0.8240350815038998,0.6580594064672349,0.9694383724108587,0.8372665193135317,0.6980328404669454,0.8409821965303741,0.6139158810634416,0.30562047772317136,0.02722206771369668,0.04796545844632055,-0.5635604201021542,-0.7136786564921673,-0.9869950849990012,-0.9660030153044986,-1.0022325084511343,-0.9133165756351672,-0.5048614579934704,-0.32103060965333186,-0.1371496324214513,-0.07959689643302328,0.4026481836465079,0.9570540676540092,0.8491985606982221,1.0887308981509378,1.1397205130038193,0.9439549946232116,0.6805089294303602,0.2942116731207227,0.3302808058217033,-0.11931707700002406,-0.3164891263086197,-0.7249481354076286,-0.8377597452656121,-0.9453180920305109,-0.972961564565308,-1.0714584866791643,-0.7130904782876258,-0.6895000005014712,-0.5369787769860848,-0.08653108788080649,0.22859347142533679,0.521512209173754,0.8759716914483267,0.8831067445203954,0.9792758125550604,0.8752109004875896,0.9722010906661875,0.7321970190949509,0.43043679575025684,-0.0023426069779103886,0.03113354190423752,-0.5271981360414841,-0.7178805460387655,-0.8172997524196755,-1.0895431744721955,-1.1477396666542659,-1.148439496084341,-0.7164286262398031,-0.6237808596806992,-0.005470901799333461,-0.09943550656308833,0.20605280870377246,0.5127229381795223,0.8128417870442144,0.8890244039357414,1.0596219102292024,0.8720285426116618,0.7149750316809205,0.47893127116088574,0.18207272280216374,0.06150077565376751,-0.21822289360795277,-0.5355832712279865,-0.5894255329684206,-0.7673427194165817,-1.019009637355349,-1.1706298863111335,-0.9634221389994875,-0.7997405904715286,-0.5711667620843885,-0.2949278309125206,0.0102824563119739,0.3308776693509758,0.5662564121467142,0.8536138240263172,0.9960131395344064,0.9087564139514888,1.0757965301213201,0.7132297610345296,0.43818604006716283,0.37218197863389924,-0.043899336723762776,-0.22973533788506376,-0.7781097664090645,-0.6254454984688652,-0.8548292622335731,-1.1455739277248587,-1.1262868533302028,-0.7050381369524428,-0.7604893015633021,-0.5221675908450306,-0.3774295065763089,0.11574647660121527,0.4159771444881839,0.7583006208904474,0.732356884543743,0.8263804617215098,1.0406225362862072,1.0227316101603237,0.60757585750539,0.645894314928994,0.26561866910948756,0.0713390571897963,-0.34112620764915297,-0.8521938931974893,-0.8264327294501931,-0.842675615653489,-1.089195524578109,-0.9987727648346684,-0.8503949235188614,-0.9197619100151202,-0.20239707339701346,-0.1657663138741821,0.27572948376997664,0.49678315224175934,0.8655203567157589,0.9473572404367906,0.9677453478398403,0.8961778293589712,0.9699308105156121,0.5264219822916821,0.5370286105072632,0.07822038721315315,0.011920688594404316,-0.3883001853296015,-0.5943403683167753,-0.8449353221448052,-1.1451250911246262,-1.0844616051684854,-0.8688058040531355,-0.771862739794385,-0.4511632446775005,-0.25787045474295367,-0.09667018907026793,0.21859149727459692,0.5795539742603882,0.5571239149303522,1.1033889263765684,1.042563362466707,1.0925908413154148,0.6950738094463585,0.78320926113732,0.6275800306986494,-0.018780157936461137,-0.11098468287825294,-0.4723285740109412,-0.8682094975119605,-0.8408573431922063,-0.9021690181271637,-1.051350430258823,-0.7901599761684648,-0.9064347917587501,-0.6549288805015481,-0.21149620096382532,0.07816727368168082,0.29787448209834033,0.7107699656254576,0.8858710045853524,1.0457901750373235,0.9875072791345111,1.0089480243184534,0.7666709609155963,0.8053479704573625,0.25284959448519645,0.24837121966351053,-0.2583756902518676,-0.6752939952558848,-0.6278831575683158,-0.9094684641981143,-0.9104138629705347,-0.8560235490913136,-0.8384691719476935,-0.7459753956947884,-0.3411777682048441,-0.150748746415922,0.2194100790222116,0.22337604859261218,0.7314494829144782,0.8084061448476906,1.143740104663425,1.0578350075974692,0.9460443776225473,0.8133220919521966,0.4378988210113548,0.4241901540136186,0.16129556512401605,-0.29481282044255536,-0.4409257445913296,-0.868150811085842,-1.028401354143116,-0.9957284477968452,-0.9164821641071336,-0.8721802412880761,-0.57603370299143,-0.3388928827334272,-0.17545942341356402,0.27703524226787485,0.5918060901087254,0.7569053828388613,1.0220164385201513,0.8694973956422416,1.0323243808240856,0.7731176697377244,0.6023579768638307,0.40934648510589583,0.0939188440112169,-0.16810725947537247,-0.42584517066698246,-0.5750372964686417,-0.8852501073978432,-1.1284499522874873,-0.884381904179436,-1.019753751175778,-0.7944003642408328,-0.5246085845139916,-0.27823686920640023,0.10941795475214461,0
